peak_index
771
1810
2045
2403
2707
2998
3283
3560
3863
4171
4466
4765
5061
5347
5634
5919
6215
6527
6824
7106
7393
7670
7953
8247
8540
8838
9142
9432
9711
9998
10283
10592
10895
11192
11481
11781
12067
12351
12645
12950
13267
13563
13843
14132
14423
14711
15012
15311
15608
15900
16183
16465
16756
17059
17359
17657
17947
18228
18514
18796
19081
19389
19694
19990
20272
20555
20838
21132
21424
21729
22030
22321
22603
22881
23164
23454
23757
24053
24346
24626
24914
25198
25485
25780
26089
26387
26671
26952
27238
27537
27833
28133
28431
28727
29015
29294
29581
29873
30183
30488
30780
31065
31349
31636
31928
32225
32530
32837
33128
33404
33692
33981
34275
34576
34871
35169
35456
35737
36017
36310
36605
36916
37216
37500
37783
38072
38357
38652
38951
39253
39548
39826
40097
40383
40678
40971
41272
41567
41850
42117
42416
42698
42997
43308
43604
43893
44172
44456
44744
45030
45324
45628
45925
46205
46479
46760
47037
47335
47633
47920
48203
48486
48766
49041
49324
49618
49924
50214
50492
50772
51057
51340
51627
51922
52216
52506
52785
53063
53341
53632
53923
54220
54508
54785
55065
55344
55626
55908
56208
56503
56785
57056
57334
57616
57900
58192
58491
58788
59078
59355
59632
59920
60214
60516
60818
61106
61392
61680
61964
62248
62547
62852
63155
63439
63712
63999
64288
64582
64876
65175
65464
65751
66031
66308
66605
66793
67131
67435
67729
68008
68303
68595
68887
69191
69504
69797
70074
70358
70643
70942
71240
71540
71846
72138
72418
72704
72998
73302
73612
73912
74196
74484
74767
74987
75333
75633
75936
76234
76516
76786
77075
77367
77664
77954
78252
78540
78825
79100
79387
79690
79992
80291
80584
80869
81152
81439
81731
82031
82336
82637
82928
83210
83493
83795
84104
84408
84710
85010
85304
85580
85871
86172
86479
86781
87079
87365
87653
87942
88232
88531
88835
89136
89422
89704
89988
90287
90590
90885
91191
91482
91762
92047
92338
92634
92945
93247
93535
93824
94103
94396
94693
94996
95299
95607
95894
96171
96451
96747
97050
97349
97645
97937
98229
98509
98790
99084
99383
99581
99931
100219
100497
100782
101071
101361
101654
101942
102235
102517
102794
103074
103371
103670
103964
104262
104546
104831
105119
105407
105708
106016
106315
106601
106882
107160
107453
107752
108046
108343
108644
108926
109200
109486
109773
110077
110375
110674
110964
111244
111525
111811
112108
112406
112711
113001
113282
113563
113851
114142
114429
114716
115001
115281
115548
115815
116084
116370
116655
116940
117214
117495
117766
118044
118324
118608
118912
119216
119510
119792
120077
120376
120676
120991
121301
121605
121890
122170
122462
122751
123051
123360
123664
123937
124222
124508
124776
125060
125355
125649
125926
126204
126477
126747
127025
127314
127604
127893
128086
128424
128699
128959
129231
129520
129799
130058
130319
130569
130820
131074
131327
131585
131852
132123
132381
132630
132884
133133
133390
133663
133934
134198
134464
134738
134990
135244
135505
135781
136062
136351
136630
136900
137171
137449
137730
138009
138304
138599
138889
139164
139440
139720
140010
140302
140600
140882
141153
141424
141684
141943
142208
142480
142747
143011
143265
143515
143766
144026
144286
144558
144833
145112
145382
145648
145903
146171
146446
146738
147013
147291
147566
147833
148100
148365
148638
148917
149204
149489
149769
150031
150304
150576
150850
151123
151408
151700
151975
152238
152511
152782
153068
153363
153645
153923
154193
154471
154742
155010
155292
155589
155865
156133
156395
156649
156906
157169
157431
157696
157961
158234
158490
158730
158974
159226
159480
159739
160002
160261
160508
160755
161006
161255
161501
161765
162036
162309
162574
162836
163093
163363
163630
163900
164183
164462
164732
164992
165246
165500
165757
166033
166302
166571
166842
167112
167371
167642
167912
168191
168485
168785
169074
169350
169630
169907
170202
170496
170720
171075
171373
171653
171921
172200
172482
172776
173068
173352
173629
173907
174177
174452
174738
175024
175323
175609
175878
176146
176428
176698
176976
177249
177524
177798
178059
178317
178579
178842
179118
179388
179663
179927
180183
180444
180706
180965
181237
181524
181812
182085
182354
182625
182897
183182
183476
183779
184072
184362
184650
184934
185214
185511
185829
186138
186428
186718
187006
187292
187578
187872
188179
188481
188764
189043
189330
189625
189930
190229
190529
190821
191113
191396
191675
191977
192282
192576
192863
193147
193424
193703
193995
194281
194575
194868
195156
195427
195702
195979
196269
196561
196848
197133
197415
197685
197950
198225
198505
198792
199076
199354
199620
199895
200163
200434
200715
200994
201272
201546
201807
202067
202340
202615
202897
203183
203469
203742
204022
204300
204574
204855
205159
205460
205738
206017
206289
206567
206845
207130
207421
207725
208005
208278
208549
208823
209101
209393
209684
209973
210256
210534
210810
211086
211365
211655
211952
212229
212502
212778
213059
213327
213607
213895
214182
214466
214738
215006
215281
215564
215851
216141
216432
216710
216991
217269
217548
217825
218123
218417
218704
218973
219247
219529
219814
220099
220392
220691
220978
221253
221527
221805
222082
222376
222667
222952
223228
223508
223784
224048
224329
224622
224916
225196
225473
225743
226025
226297
226573
226864
227145
227428
227703
227976
228239
228517
228808
229095
229377
229660
229937
230215
230485
230761
231059
231359
231639
231914
232191
232460
232732
233016
233302
233589
233876
234151
234416
234685
234960
235250
235548
235828
236109
236391
236665
236928
237206
237496
237784
238071
238344
238610
238885
239158
239434
239718
239997
240267
240541
240810
241066
241319
241589
241856
242115
242374
242633
242880
243132
243389
243644
243909
244192
244462
244730
244985
245247
245516
245792
246066
246353
246648
246936
247202
247470
247742
248018
248300
248587
248879
249158
249434
249707
249989
250274
250558
250859
251161
251442
251712
251994
252286
252586
252868
253160
253456
253742
254011
254283
254586
254892
255171
255454
255739
256028
256296
256573
256861
257158
257440
257710
257966
258227
258479
258738
259005
259281
259542
259812
260077
260335
260586
260853
261133
261418
261691
261968
262242
262517
262789
263062
263351
263642
263932
264218
264500
264773
265063
265355
265653
265948
266239
266529
266816
267100
267376
267680
267979
268261
268545
268824
269103
269384
269670
269961
270257
270551
270822
271095
271371
271656
271953
272245
272534
272839
273124
273395
273676
273968
274265
274561
274853
275132
275404
275672
275949
276236
276517
276805
277103
277389
277650
277924
278212
278519
278814
279099
279383
279577
279918
280209
280512
280815
281110
281402
281683
281955
282234
282514
282802
283097
283390
283673
283944
284217
284492
284779
285074
285364
285653
285937
286211
286487
286764
287052
287353
287656
287945
288226
288507
288793
289077
289373
289668
289971
290258
290539
290814
291109
291408
291697
291991
292282
292567
292845
293124
293412
293713
294011
294296
294582
294857
295143
295422
295718
296014
296320
296612
296890
297170
297451
297739
298033
298335
298628
298921
299206
299484
299757
300052
300360
300663
300940
301211
301495
301782
302063
302348
302645
302948
303241
303503
303773
304066
304362
304640
304924
305211
305498
305710
306036
306338
306641
306944
307235
307514
307745
308063
308350
308626
308912
309217
309516
309781
310053
310333
310628
310915
311200
311489
311783
312063
312329
312606
312827
313195
313509
313808
314091
314374
314665
314953
315246
315542
315844
316136
316416
316694
316981
317266
317561
317786
318146
318438
318730
319012
319224
319587
319905
320206
320494
320787
321073
321372
321664
321969
322276
322574
322857
323139
323426
323731
324045
324341
324641
324930
325216
325495
325783
326089
326396
326698
326987
327277
327566
327860
328150
328453
328754
329057
329339
329620
329913
330217
330525
330820
331125
331412
331705
331990
332280
332589
332898
333200
333480
333768
334057
334349
334644
334944
335249
335544
335824
336101
336386
336680
336980
337282
337572
337864
338146
338433
338721
339025
339328
339636
339926
340206
340493
340781
341075
341380
341685
341975
342266
342548
342822
343117
343410
343706
343995
344280
344557
344844
345130
345416
345723
346018
346309
346597
346805
347148
347455
347760
348063
348368
348659
348935
349222
349503
349805
350113
350410
350693
350981
351266
351482
351821
352116
352417
352712
352987
353258
353549
353833
354129
354427
354718
355016
355303
355580
355859
356165
356464
356759
357046
357329
357611
357901
358186
358484
358789
359087
359365
359634
359903
360182
360471
360764
361052
361345
361626
361895
362163
362451
362733
363027
363319
363607
363879
364159
364447
364732
365023
365331
365641
365915
366192
366484
366779
367064
367364
367675
367961
368248
368532
368825
369110
369410
369715
370010
370280
370558
370843
371132
371407
371704
372007
372300
372558
372835
373124
373429
373713
374001
374304
374595
374856
375125
375413
375716
375999
376288
376577
376862
377082
377405
377701
378006
378309
378609
378886
379160
379440
379731
380024
380313
380611
380899
381173
381453
381725
382016
382309
382608
382896
383184
383458
383744
384028
384317
384615
384916
385206
385488
385769
386051
386349
386650
386942
387243
387534
387812
388085
388373
388672
388980
389278
389564
389860
390150
390435
390731
391040
391344
391641
391925
392205
392494
392781
393078
393378
393675
393958
394244
394520
394801
395097
395402
395698
395989
396269
396553
396846
397134
397337
397705
398008
398295
398569
398855
399140
399436
399731
400024
400323
400600
400878
401164
401453
401759
402061
402361
402646
402934
403216
403510
403805
404101
404404
404697
404980
405256
405544
405837
406131
406426
406716
407006
407289
407560
407850
408152
408452
408746
409031
409314
409598
409881
410177
410477
410782
411072
411353
411633
411916
412207
412512
412817
413109
413403
413693
413970
414250
414542
414848
415144
415431
415704
415995
416275
416556
416850
417153
417446
417729
418007
418284
418578
418867
419156
419454
419746
420022
420303
420584
420874
421174
421475
421767
421995
422321
422604
422819
423165
423462
423768
424065
424340
424617
424894
425189
425490
425789
426079
426381
426662
426939
427225
427524
427828
428129
428413
428699
428993
429276
429559
429868
430166
430471
430755
431035
431316
431616
431911
432209
432510
432799
433083
433365
433649
433842
434212
434514
434811
435096
435371
435659
435952
436150
436513
436820
437119
437401
437682
437965
438269
438571
438866
439159
439454
439741
440023
440313
440623
440934
441231
441519
441815
442110
442407
442624
442993
443305
443607
443889
444176
444474
444706
445061
445363
445659
445949
446227
446507
446800
447105
447402
447696
447981
448265
448549
448835
449137
449442
449748
450038
450326
450607
450895
451193
451502
451806
452101
452391
452678
452960
453250
453546
453853
454155
454444
454651
454998
455294
455588
455888
456190
456488
456772
457046
457334
457636
457938
458169
458524
458816
459104
459381
459665
459967
460276
460572
460859
461149
461434
461721
462015
462315
462622
462919
463198
463482
463765
464049
464362
464665
464960
465257
465539
465821
466105
466405
466708
467011
467309
467590
467878
468165
468460
468763
469066
469364
469661
469942
470231
470531
470838
471140
471445
471728
472019
472305
472589
472888
473202
473499
473792
474075
474363
474653
474943
475238
475548
475852
476137
476417
476706
477000
477308
477605
477899
478196
478481
478757
479040
479333
479634
479932
480219
480495
480780
481057
481341
481642
481942
482240
482526
482802
483072
483351
483635
483931
484221
484507
484786
485073
485352
485641
485940
486254
486557
486845
487129
487424
487719
488020
488321
488636
488932
489215
489498
489789
490091
490394
490695
490995
491288
491571
491850
492146
492445
492751
493046
493340
493624
493914
494200
494492
494791
495086
495371
495650
495925
496202
496500
496713
497075
497377
497665
497945
498231
498518
498812
499115
499418
499702
499988
500269
500550
500848
501146
501449
501746
502040
502317
502602
502889
503192
503497
503794
504081
504375
504655
504936
505228
505529
505831
506126
506399
506680
506970
507257
507553
507856
508161
508456
508745
509020
509320
509624
509924
510221
510521
510805
511093
511372
511660
511971
512278
512569
512852
513136
513425
513720
514015
514319
514629
514920
515195
515477
515763
516066
516372
516667
516971
517267
517554
517832
518128
518427
518735
519029
519308
519595
519883
520150
520463
520769
520983
521342
521628
521914
522210
522512
522815
523117
523417
523709
523999
524280
524578
524891
525199
525493
525781
526065
526356
526647
526941
527244
527549
527839
528119
528403
528690
528992
529294
529600
529897
530191
530472
530763
531059
531358
531669
531968
532258
532545
532828
533122
533416
533720
534013
534308
534593
534873
535162
535460
535769
536068
536365
536645
536931
537212
537506
537811
538115
538422
538708
538994
539279
539575
539875
540172
540472
540769
541053
541334
541617
541917
542227
542530
542826
543116
543408
543689
543984
544286
544591
544896
545182
545456
545742
546023
546307
546600
546809
547200
547483
547759
548033
548335
548633
548927
549219
549502
549785
550071
550349
550641
550953
551254
551533
551816
552097
552386
552680
552976
553283
553589
553877
554155
554440
554724
555027
555324
555614
555915
556204
556486
556766
557057
557362
557668
557962
558239
558528
558814
559103
559396
559696
559998
560297
560577
560847
561142
561436
561733
562020
562309
562592
562813
563143
563424
563732
564031
564320
564601
564883
565165
565453
565742
566041
566260
566616
566899
567185
567380
567722
568028
568327
568625
568919
569205
569483
569764
570059
570367
570668
570958
571247
571538
571832
572123
572429
572731
573041
573329
573609
573894
574194
574431
574786
575096
575387
575678
575959
576249
576551
576863
577163
577457
577741
578026
578311
578601
578902
579205
579448
579791
580075
580358
580648
580948
581247
581544
581835
582120
582395
582670
582921
583239
583539
583822
584098
584364
584635
584904
585176
585455
585731
586012
586276
586525
586772
587031
587300
587572
587843
588113
588377
588643
588906
589178
589454
589747
590041
590317
590588
590864
591144
591418
591707
592000
592289
592572
592854
593069
593388
593684
593991
594281
594564
594855
595128
595403
595690
595993
596279
596584
596880
597137
597402
597671
597926
598187
598459
598714
598970
599222
599469
599704
599953
600215
600484
600739
601012
601273
601538
601800
602064
602331
602611
602894
603179
603456
603723
603990
604277
604565
604844
605149
605460
605738
606008
606294
606588
606881
607179
607476
607767
608044
608310
608577
608854
609137
609426
609716
609988
610262
610545
610824
611109
611400
611696
611987
612264
612540
612820
613109
613400
613694
613985
614260
614540
614817
615090
615371
615677
615969
616251
616527
616804
617087
617367
617656
617950
618249
618529
618805
619082
619363
619653
619952
620250
620542
620826
621103
621380
621661
621945
622247
622542
622824
623090
623368
623639
623918
624191
624483
624766
625049
625310
625580
625854
626139
626428
626717
627000
627282
627556
627828
628104
628392
628689
628981
629172
629496
629762
630028
630290
630562
630838
631111
631378
631636
631899
632158
632415
632688
632959
633229
633499
633768
634029
634284
634546
634827
635108
635395
635685
635967
636240
636521
636812
637105
637400
637705
637998
638283
638561
638847
639141
639447
639745
640040
640330
640616
640901
641178
641481
641778
642066
642338
642615
642888
643165
643440
643722
644006
644287
644548
644808
645063
645321
645582
645864
646133
646394
646659
646917
647168
647415
647673
647935
648204
648478
648733
648979
649232
649485
649734
