peak_index
711
1131
1369
1712
2036
2349
2662
2972
3301
3631
3960
4283
4609
4928
5241
5569
5898
6223
6528
6830
7143
7463
7786
8106
8414
8722
9026
9321
9628
9953
10281
10590
10892
11185
11470
11760
12050
12338
12622
12911
13184
13457
13740
14030
14333
14641
14924
15195
15474
15761
16052
16351
16655
16957
17250
17532
17814
18099
18396
18687
18977
19268
19559
19861
20173
20494
20822
21166
21499
21809
22130
22452
22782
23127
23457
23775
24090
24404
24720
25040
25374
25704
26009
26310
26637
26967
27303
27622
27934
28243
28559
28861
29155
29467
29782
30088
30387
30688
30985
31310
31635
31947
32262
32566
32867
33165
33467
33775
34090
34390
34678
34980
35288
35598
35912
36217
36529
36837
37141
37449
37773
38099
38430
38748
39059
39375
39692
40013
40339
40668
40975
41265
41542
41829
42126
42421
42714
42990
43268
43546
43816
44095
44388
44676
44977
45270
45553
45840
46138
46440
46751
47060
47360
47656
47750
47944
48228
48516
48820
49125
49421
49698
49977
50248
50527
50816
51114
51400
51687
51965
52239
52511
52793
53087
53381
53667
53947
54220
54517
54814
55107
55405
55710
56011
56307
56607
56918
57252
57592
57928
58245
58542
58845
59166
59490
59821
60156
60476
60784
61089
61395
61726
62058
62359
62672
62994
63159
63413
63631
63966
64292
64627
64929
65244
65575
65906
66225
66564
66890
67199
67510
67831
68164
68505
68830
69136
69446
69757
70082
70417
70752
71088
71400
71710
72021
72350
72680
73002
73307
73600
73912
74229
74556
74896
75214
75537
75854
76167
76493
76831
77161
77498
77827
78147
78474
78814
79159
79515
79853
80161
80464
80773
81107
81452
81790
82113
82443
82773
83107
83433
83777
84118
84427
84735
85072
85418
85752
86068
86372
86683
86992
87305
87654
88000
88338
88667
88998
89345
89699
90060
90399
90737
91069
91397
91743
92094
92448
92791
93131
93471
93817
94157
94516
94869
95199
95528
95864
96227
96589
96941
97284
97612
97950
98290
98647
99012
99358
99692
100016
100360
100722
101086
101427
101771
102113
102456
102825
103197
103555
103881
104210
104548
104883
105199
105532
105852
106182
106505
106842
107208
107567
107918
108253
108574
108918
109274
109634
109998
110346
110691
111047
111410
111791
112165
112522
112880
113245
113615
113985
114353
114701
115061
115306
115306
115741
116090
116435
116769
117097
117432
117779
118143
118511
118853
119177
119512
119845
120171
120502
120823
121148
121459
121760
122091
122445
122802
123145
123475
123823
124179
124536
124893
125233
125563
125889
126227
126592
126953
127298
127636
127968
128290
128631
128985
129352
129694
130007
130332
130649
130988
131319
131647
131957
132266
132576
132910
133273
133648
134018
134365
134721
135104
135299
135725
136087
136434
136785
137137
137507
137887
138232
138581
138934
139310
139689
140063
140433
140775
141126
141494
141873
142251
142610
142948
143306
143680
144059
144439
144808
145156
145507
145877
146249
146604
146960
147315
147671
148051
148435
148811
149166
149521
149881
150259
150649
151012
151367
151729
152092
152470
152861
153243
153598
153960
154344
154722
155101
155477
155837
156187
156555
156944
157323
157672
158027
158385
158755
159118
159488
159866
160216
160573
160951
161334
161716
162086
162455
162819
163203
163595
163972
164333
164692
165053
165441
165832
166203
166558
166920
167293
167654
168030
168388
168727
169053
169391
169764
170128
170481
170843
171192
171538
171902
172272
172645
172991
173329
173700
174087
174455
174833
175192
175545
175914
176286
176664
177032
177378
177697
178030
178388
178752
179129
179490
179836
180213
180597
180974
181342
181690
182042
182386
182733
183073
183425
183767
184104
184448
184806
185156
185493
185822
186153
186490
186845
187206
187570
187895
188208
188530
188860
189211
189561
189900
190235
190563
190881
191226
191580
191936
192263
192586
192918
193257
193605
193949
194284
194622
194953
195285
195636
196004
196365
196702
197045
197391
197733
198083
198433
198779
199117
199457
199810
200168
200524
200870
201213
201550
201895
202242
202598
202960
203308
203648
203997
204344
204689
205032
205365
205697
206047
206419
206785
207159
207520
207878
208234
208623
209015
209377
209745
210109
210472
210848
211239
211621
211975
212351
212726
213094
213462
213813
214152
214496
214847
215234
215567
215981
216337
216689
217038
217389
217719
218060
218391
218711
219066
219442
219819
220183
220549
220916
221280
221668
222038
222388
222729
223064
223417
223782
224136
224485
224825
225171
225515
225889
226266
226634
226996
227350
227704
228086
228466
228825
229191
229550
229900
230272
230660
231032
231373
231734
232104
232475
232852
233227
233593
233939
234309
234705
235083
235451
235812
236174
236543
236936
237325
237680
238027
238381
238734
239108
239481
239829
240176
240536
240905
241281
241663
242035
242385
242750
243139
243527
243902
244268
244638
244994
245374
245769
246139
246488
246844
247223
247598
247975
248350
248707
249045
249406
249782
250145
250507
250852
251203
251550
251918
252299
252660
253018
253373
253744
254122
254500
254872
255220
255585
255962
256342
256732
257108
257458
257823
258207
258585
258958
259324
259682
260022
260375
260751
261126
261478
261827
262186
262548
262922
263297
263645
264002
264356
264714
265097
265470
265817
266167
266533
266899
267268
267637
267998
268346
268693
269070
269451
269814
270171
270535
270886
271259
271643
272006
272360
272714
273076
273447
273821
274189
274537
274895
275261
275621
276001
276377
276725
277069
277433
277817
278180
278538
278906
279255
279603
279982
280373
280734
281089
281453
281821
282191
282574
282944
283296
283657
284022
284406
284778
285146
285501
285849
286221
286598
286965
287326
287680
288032
288393
288784
289148
289506
289868
290214
290574
290953
291318
291673
292025
292374
292739
293117
293493
293843
294194
294552
294908
295270
295638
295989
296335
296687
297070
297445
297807
298183
298538
298892
299267
299625
299989
300324
300638
300970
301301
301657
302025
302393
302745
303101
303472
303862
304239
304611
304977
305338
305704
306081
306471
306832
307189
307544
307908
308303
308637
308979
309326
309668
310028
310406
310785
311133
311477
311824
312172
312539
312905
313248
313593
313943
314286
314650
314986
315305
315612
315923
316234
316564
316902
317232
317584
317928
318279
318636
319018
319400
319760
320107
320467
320838
321219
321584
321949
322300
322648
323014
323392
323761
324112
324455
324814
325182
325547
325912
326257
326571
326884
327202
327555
327916
328268
328618
328973
329339
329721
330089
330465
330825
331197
331574
331952
332320
332687
333050
333405
333742
334109
334457
334785
335095
335399
335709
336019
336345
336669
336994
337309
337623
337951
338300
338659
339014
339360
339724
340072
340434
340784
341114
341441
341773
342123
342506
342888
343268
343634
344007
344377
344746
345123
345487
345827
346154
346497
346859
347205
347527
347856
348189
348520
348868
349228
349593
349930
350239
350539
350842
351149
351455
351779
352101
352441
352785
353151
353534
353898
354250
354579
354909
355232
355573
355930
356292
356646
356994
357360
357744
358129
358498
358862
359220
359579
359958
360333
360699
361031
361361
361717
362057
362407
362744
363048
363346
363642
363938
364267
364619
364954
365270
365582
365913
366275
366653
367035
367413
367781
368156
368549
368944
369317
369656
370013
370370
370728
371092
371450
371803
372148
372500
372878
373238
373593
373943
374300
374661
375032
375413
375773
376122
376474
376836
377205
377566
377925
378285
378624
378972
379345
379720
380074
380414
380755
381119
381465
381795
382141
382468
382796
383121
383467
383844
384196
384546
384894
385244
385605
385980
386357
386715
387067
387420
387767
388134
388475
388796
389107
389432
389769
390117
390466
390822
391174
391523
391874
392254
392627
392980
393320
393673
394029
394390
394772
395129
395458
395801
396151
396525
396897
397267
397622
397965
398314
398681
399045
399411
399764
400112
400450
400801
401147
401490
401828
402176
402534
402897
403281
403660
404030
404381
404749
405128
405501
405885
406249
406605
406957
407339
407727
408088
408450
408807
409155
409529
409910
410279
410630
410980
411331
411707
412079
412439
412792
413149
413498
413863
414254
414615
414961
415317
415669
416041
416410
416769
417123
417469
417816
418183
418562
418916
419265
419621
419970
420341
420699
421066
421420
421761
422113
422482
422859
423215
423553
423890
424228
424560
424893
425240
425582
425920
426265
426620
427004
427378
427734
428092
428437
428796
429173
429554
429908
430257
430623
430983
431354
431723
432069
432415
432756
433091
433453
433815
434163
434498
434851
435217
435584
435957
436331
436675
437018
437384
437767
438134
438481
438829
439174
439525
439877
440232
440583
440925
441254
441604
441953
442310
442650
442967
443288
443606
443939
444298
444646
444974
445306
445642
445996
446349
446713
447074
447418
447757
448111
448462
448826
449180
449515
449863
450212
450555
450908
451253
451598
451939
452282
452643
452999
453352
453694
454029
454377
454718
455084
455451
455801
456133
456469
456816
457175
457518
457861
458210
458545
458887
459251
459601
459960
460305
460628
460978
461330
461673
462019
462356
462691
463023
463379
463759
464115
464466
464800
465146
465501
465865
466219
466556
466879
467207
467554
467904
468264
468610
468932
469271
469613
469962
470328
470680
471031
471371
471713
472076
472437
472798
473148
473502
473856
474196
474556
474917
475262
475590
475929
476292
476652
477020
477369
477713
478040
478385
478747
479115
479462
479807
480161
480518
480873
481249
481612
481947
482285
482627
482997
483342
483689
484031
484362
484703
485046
485406
485770
486124
486475
486836
487213
487596
487954
488303
488654
489004
489361
489718
490083
490432
490762
491101
491457
491814
492164
492495
492820
493146
493479
493820
494173
494511
494839
495168
495504
495853
496213
496575
496924
497243
497568
497902
498241
498574
498890
499190
499508
499819
500137
500463
500790
501117
501437
501761
502080
502427
502771
503105
503420
503723
504043
504376
504722
505088
505437
505768
506086
506419
506767
507111
507444
507792
508134
508481
508849
509230
509607
509951
510301
510664
511036
511411
511771
512123
512468
512822
513190
513555
513909
514266
514613
514965
515333
515704
516083
516440
516790
517134
517503
517877
518234
518580
518932
519282
519643
520012
520384
520736
521078
521439
521812
522173
522538
522873
523219
523562
523914
524261
524617
524965
525313
525653
526021
526399
526768
527128
527483
527825
528158
528505
528873
529224
529578
529942
530311
530688
531066
531430
531776
532014
532473
532864
533236
533598
533954
534315
534686
535057
535419
535769
536117
536481
536871
537271
537657
538040
538400
538747
539123
539505
539876
540217
540569
540936
541305
541665
542032
542397
542741
543086
543467
543847
544204
544556
544915
545285
545656
546035
546413
546756
547096
547455
547837
548210
548575
548942
549304
549662
550048
550432
550798
551142
551484
551842
552204
552571
552931
553272
553625
553986
554355
554725
555091
555438
555773
556137
556511
556872
557232
557592
557943
558297
558674
559054
559406
559749
560112
560470
560836
561210
561561
561883
562190
562516
562883
563256
563611
563967
564331
564686
565051
565437
565818
566168
566526
566897
567275
567645
568015
568385
568731
569085
569465
569844
570199
570549
570909
571273
571631
572003
572369
572720
573059
573415
573802
574172
574528
574879
575217
575558
575911
576277
576642
576984
577332
577695
578078
578462
578831
579193
579550
579895
580266
580648
581023
581380
581736
582109
582486
582861
583231
583586
583950
584307
584682
585061
585417
585760
586107
586479
586853
587219
587589
587925
588269
588628
589007
589371
589727
590079
590436
590788
591158
591530
591869
592200
592533
592861
593205
593543
593877
594215
594551
594904
595263
595637
596014
596367
596717
597079
597465
597837
598205
598572
598911
599258
599625
599989
600347
600692
601042
601395
601761
602126
602483
602836
603171
603505
603864
604228
604572
604906
605248
605580
605935
606300
606674
607017
607352
607685
608015
608357
608710
609058
609397
609749
610113
610499
610880
611262
611616
611966
612339
612708
613067
613422
613774
614127
614489
614852
615229
615589
615934
616287
616655
617034
617392
617763
618119
618468
618824
619199
619583
619938
620282
620647
621010
621379
621749
622122
622459
622797
623160
623528
623871
624213
624552
624890
625228
625590
625971
626331
626674
627022
627373
627725
628080
628433
628784
629130
629484
629862
630243
630625
630982
631340
631695
632063
632444
632812
633172
633526
633889
634278
634648
635009
635365
635728
636099
636482
636856
637216
637554
637896
638239
638589
638918
639254
639594
639945
640287
640649
641024
641396
641737
642072
642436
642812
643177
643542
643900
644267
644629
645012
645395
645749
646098
646450
646821
647194
647569
647934
648291
648647
649004
649372
649751
