Results for: 102.dart
========================================
Total Peaks Detected: 2193
Heart Rate: 73.01 BPM
========================================
Peak indices (2193 peaks):
697, 1614, 1911, 2201, 2489, 2782, 3073, 3373, 3692, 3998, 4289, 4578, 4866, 5164, 5466, 5768, 6084, 6381, 6665, 6951, 7242, 7549, 7857, 8160, 8473, 8764, 9043, 9333, 9631, 9940, 10245, 10543, 10845, 11131, 11414, 11710, 12018, 12330, 12633, 12927, 13223, 13511, 13797, 14098, 14409, 14718, 15013, 15300, 15598, 15890, 16184, 16492, 16803, 17107, 17393, 17680, 17979, 18274, 18573, 18879, 19184, 19480, 19765, 20055, 20359, 20663, 20965, 21268, 21567, 21857, 22143, 22434, 22744, 23050, 23350, 23647, 23944, 24234, 24522, 24825, 25138, 25442, 25737, 26024, 26317, 26607, 26899, 27211, 27522, 27821, 28114, 28401, 28697, 28991, 29273, 29582, 29881, 30158, 30440, 30716, 30998, 31285, 31586, 31882, 32178, 32466, 32735, 33008, 33297, 33595, 33883, 34090, 34375, 34667, 34950, 35238, 35536, 35848, 36153, 36452, 36755, 37043, 37326, 37620, 37924, 38237, 38540, 38824, 39113, 39401, 39683, 39978, 40280, 40589, 40879, 41157, 41449, 41732, 42010, 42317, 42617, 42912, 43204, 43481, 43763, 44056, 44351, 44651, 44945, 45244, 45517, 45800, 46089, 46377, 46679, 46978, 47265, 47561, 47841, 48112, 48405, 48709, 49000, 49293, 49580, 49855, 50144, 50419, 50698, 51014, 51314, 51598, 51883, 52161, 52442, 52725, 53012, 53318, 53614, 53894, 54175, 54451, 54733, 55020, 55315, 55618, 55912, 56192, 56469, 56743, 57035, 57330, 57621, 57922, 58215, 58490, 58766, 59044, 59335, 59639, 59933, 60223, 60515, 60792, 61062, 61349, 61647, 61944, 62243, 62531, 62826, 63114, 63399, 63698, 64010, 64323, 64620, 64907, 65204, 65494, 65781, 66085, 66396, 66702, 66990, 67280, 67578, 67872, 68172, 68479, 68788, 69084, 69367, 69656, 69954, 70254, 70557, 70861, 71164, 71457, 71743, 72037, 72343, 72647, 72950, 73248, 73543, 73832, 74118, 74418, 74730, 75033, 75334, 75627, 75920, 76210, 76500, 76810, 77120, 77420, 77714, 78001, 78295, 78585, 78884, 79200, 79508, 79804, 80094, 80381, 80678, 80678, 80977, 81278, 81592, 81895, 82179, 82467, 82756, 83061, 83366, 83669, 83983, 84278, 84559, 84848, 85143, 85452, 85757, 86055, 86360, 86650, 86934, 87227, 87532, 87846, 88150, 88443, 88741, 89029, 89315, 89612, 89919, 90234, 90529, 90815, 91114, 91406, 91697, 92004, 92310, 92619, 92908, 93190, 93489, 93782, 94079, 94386, 94692, 94992, 95280, 95566, 95868, 96171, 96472, 96775, 97077, 97369, 97653, 97941, 98249, 98559, 98856, 98973, 99155, 99452, 99743, 100029, 100328, 100641, 100945, 101243, 101533, 101824, 102113, 102404, 102712, 103025, 103328, 103622, 103910, 104203, 104496, 104795, 105106, 105415, 105709, 105996, 106282, 106578, 106699, 106880, 107184, 107497, 107802, 108088, 108373, 108663, 108964, 109269, 109571, 109881, 110174, 110458, 110748, 111042, 111355, 111662, 111962, 112265, 112554, 112838, 113130, 113430, 113745, 113862, 114050, 114341, 114639, 114931, 115044, 115217, 115519, 115827, 116140, 116437, 116721, 117018, 117309, 117600, 117906, 118213, 118521, 118811, 119095, 119394, 119692, 119992, 120298, 120603, 120904, 121189, 121472, 121773, 122076, 122380, 122684, 122983, 123281, 123566, 123853, 124163, 124469, 124768, 125066, 125357, 125648, 125935, 126229, 126546, 126853, 127150, 127444, 127735, 128026, 128318, 128622, 128936, 129239, 129528, 129814, 130106, 130401, 130701, 131011, 131325, 131623, 131907, 132192, 132488, 132788, 133089, 133399, 133706, 133992, 134276, 134566, 134868, 135176, 135479, 135787, 136084, 136366, 136653, 136945, 137255, 137564, 137864, 138164, 138457, 138742, 139033, 139337, 139653, 139958, 140251, 140547, 140836, 141120, 141417, 141724, 142037, 142336, 142623, 142920, 143211, 143505, 143812, 144119, 144429, 144719, 145000, 145297, 145592, 145891, 146201, 146507, 146810, 147098, 147380, 147683, 147987, 148288, 148594, 148892, 149186, 149470, 149755, 150066, 150376, 150677, 150979, 151271, 151564, 151849, 152142, 152459, 152765, 153062, 153353, 153640, 153934, 154226, 154528, 154848, 155153, 155444, 155730, 156020, 156317, 156615, 156921, 157236, 157532, 157813, 158100, 158394, 158696, 159002, 159311, 159618, 159905, 160188, 160476, 160779, 161084, 161387, 161694, 161991, 162276, 162563, 162857, 163170, 163478, 163777, 164078, 164370, 164653, 164942, 165242, 165557, 165861, 166153, 166453, 166745, 167031, 167331, 167638, 167949, 168247, 168532, 168827, 169118, 169408, 169715, 170021, 170332, 170625, 170909, 171207, 171503, 171802, 172109, 172413, 172716, 173002, 173284, 173585, 173887, 174189, 174495, 174795, 175090, 175377, 175663, 175971, 176277, 176577, 176878, 177170, 177461, 177748, 178042, 178358, 178667, 178966, 179260, 179550, 179842, 180133, 180434, 180751, 181056, 181344, 181631, 181923, 182217, 182516, 182828, 183143, 183440, 183724, 184010, 184304, 184603, 184905, 185215, 185521, 185810, 186095, 186384, 186687, 186995, 187299, 187607, 187904, 188186, 188472, 188764, 189074, 189382, 189682, 189984, 190277, 190561, 190852, 191155, 191468, 191772, 192065, 192362, 192651, 192934, 193233, 193539, 193853, 194152, 194440, 194737, 195029, 195321, 195627, 195933, 196243, 196534, 196813, 197111, 197407, 197704, 198012, 198318, 198621, 198908, 199192, 199494, 199795, 200096, 200400, 200700, 200992, 201277, 201565, 201874, 202181, 202482, 202783, 203079, 203369, 203656, 203952, 204265, 204570, 204868, 205160, 205452, 205744, 206035, 206342, 206658, 206960, 207253, 207540, 207744, 208044, 208340, 208644, 208960, 209260, 209546, 209834, 210127, 210427, 210730, 211039, 211349, 211643, 211925, 212211, 212508, 212813, 213117, 213424, 213729, 214017, 214301, 214591, 214899, 215208, 215509, 215814, 216108, 216391, 216678, 216974, 217286, 217594, 217892, 218191, 218482, 218767, 219063, 219368, 219680, 219985, 220274, 220566, 220856, 221145, 221448, 221757, 222070, 222175, 222367, 222651, 222948, 223240, 223536, 223843, 224148, 224451, 224739, 225020, 225321, 225619, 225922, 226231, 226534, 226831, 227115, 227399, 227705, 228010, 228311, 228614, 228908, 229201, 229487, 229776, 230092, 230402, 230698, 230995, 231287, 231578, 231865, 232163, 232481, 232785, 233078, 233366, 233658, 233951, 234246, 234556, 234870, 235169, 235457, 235741, 236034, 236331, 236633, 236942, 237252, 237544, 237830, 238118, 238418, 238725, 239027, 239337, 239639, 239922, 240206, 240496, 240800, 241109, 241411, 241717, 242011, 242295, 242587, 242884, 243198, 243198, 243503, 243801, 244099, 244387, 244672, 244968, 245273, 245399, 245588, 245893, 246182, 246479, 246770, 247057, 247361, 247667, 247979, 248273, 248555, 248854, 249146, 249441, 249751, 250059, 250364, 250652, 250935, 251235, 251533, 251833, 252139, 252441, 252738, 253022, 253307, 253614, 253920, 254224, 254527, 254823, 255117, 255401, 255691, 256003, 256309, 256606, 256901, 257193, 257486, 257774, 258075, 258393, 258696, 258990, 259279, 259571, 259862, 260155, 260463, 260776, 261077, 261367, 261653, 261949, 262247, 262548, 262858, 263168, 263459, 263743, 264030, 264329, 264629, 264931, 265244, 265546, 265832, 266121, 266411, 266717, 267023, 267323, 267631, 267922, 268205, 268495, 268790, 269104, 269411, 269710, 270012, 270302, 270586, 270881, 271186, 271500, 271802, 272091, 272388, 272677, 272962, 273265, 273575, 273885, 274182, 274468, 274766, 275055, 275349, 275656, 275963, 276268, 276554, 276839, 277139, 277437, 277740, 278047, 278355, 278651, 278935, 279221, 279526, 279830, 280129, 280433, 280731, 281022, 281307, 281602, 281914, 282221, 282521, 282818, 283111, 283399, 283685, 283988, 284301, 284605, 284902, 285191, 285486, 285777, 286071, 286384, 286695, 286993, 287284, 287569, 287864, 288159, 288457, 288772, 289079, 289370, 289659, 289948, 290247, 290549, 290849, 291164, 291462, 291745, 292033, 292323, 292628, 292933, 293235, 293547, 293839, 294123, 294413, 294710, 295023, 295326, 295623, 295927, 296215, 296495, 296789, 297096, 297410, 297711, 298006, 298305, 298591, 298876, 299178, 299487, 299794, 300089, 300378, 300673, 300962, 301256, 301565, 301878, 302181, 302470, 302759, 303054, 303348, 303649, 303955, 304265, 304559, 304842, 305137, 305436, 305737, 306044, 306348, 306649, 306936, 307218, 307517, 307821, 308123, 308430, 308727, 309023, 309312, 309597, 309907, 310218, 310519, 310820, 311109, 311402, 311690, 311980, 312297, 312607, 312722, 312904, 313198, 313488, 313784, 314075, 314375, 314694, 314999, 315288, 315575, 315862, 316158, 316457, 316761, 317079, 317377, 317662, 317950, 318242, 318546, 318852, 319155, 319465, 319754, 320034, 320322, 320622, 320935, 321240, 321544, 321844, 322131, 322412, 322705, 323016, 323323, 323623, 323922, 324214, 324497, 324788, 325090, 325407, 325713, 326006, 326301, 326591, 326878, 327177, 327482, 327796, 328095, 328378, 328673, 328969, 329262, 329570, 329877, 330187, 330477, 330757, 331055, 331353, 331651, 331958, 332262, 332563, 332849, 333132, 333436, 333740, 334043, 334347, 334643, 334938, 335224, 335510, 335819, 336127, 336428, 336728, 337021, 337316, 337604, 337899, 338216, 338521, 338815, 339107, 339396, 339686, 339979, 340283, 340598, 340902, 341195, 341483, 341777, 342071, 342370, 342680, 342990, 343286, 343571, 343856, 344153, 344454, 344759, 345070, 345378, 345665, 345951, 346238, 346542, 346847, 347149, 347459, 347754, 348036, 348325, 348619, 348931, 349238, 349538, 349843, 350133, 350415, 350706, 351009, 351321, 351625, 351917, 352214, 352505, 352792, 353092, 353402, 353717, 354014, 354298, 354595, 354885, 355176, 355480, 355787, 356095, 356384, 356669, 356969, 357263, 357562, 357870, 358176, 358475, 358760, 359046, 359345, 359646, 359948, 360253, 360556, 360849, 361135, 361426, 361734, 362041, 362340, 362639, 362935, 363222, 363507, 363807, 364119, 364423, 364724, 365017, 365312, 365600, 365889, 366200, 366509, 366808, 367104, 367390, 367683, 367975, 368272, 368588, 368898, 369192, 369483, 369770, 370067, 370365, 370667, 370982, 371284, 371567, 371855, 372145, 372447, 372753, 373056, 373370, 373664, 373945, 374234, 374529, 374839, 375142, 375442, 375748, 376037, 376320, 376613, 376917, 377233, 377536, 377829, 378129, 378417, 378699, 378997, 379306, 379618, 379913, 380203, 380502, 380793, 381083, 381390, 381701, 382006, 382295, 382583, 382878, 383170, 383469, 383775, 384084, 384383, 384670, 384961, 385259, 385558, 385863, 386165, 386470, 386761, 387043, 387338, 387641, 387943, 388249, 388550, 388847, 389136, 389420, 389724, 390032, 390333, 390637, 390930, 391222, 391508, 391796, 392109, 392420, 392722, 393020, 393309, 393602, 393891, 394187, 394505, 394812, 395104, 395391, 395678, 395976, 396270, 396575, 396895, 397197, 397481, 397767, 398057, 398357, 398659, 398964, 399277, 399569, 399850, 400137, 400435, 400744, 401053, 401357, 401660, 401947, 402228, 402518, 402825, 403135, 403436, 403738, 404032, 404318, 404606, 404904, 405218, 405525, 405822, 406118, 406408, 406692, 406988, 407292, 407605, 407910, 408199, 408494, 408786, 409076, 409382, 409689, 409999, 410295, 410577, 410871, 411166, 411462, 411770, 412077, 412383, 412671, 412954, 413255, 413555, 413857, 414164, 414465, 414759, 415042, 415327, 415634, 415941, 416244, 416549, 416843, 417137, 417423, 417713, 418028, 418334, 418632, 418926, 419216, 419509, 419798, 420098, 420417, 420722, 421013, 421302, 421594, 421885, 422181, 422490, 422802, 423099, 423387, 423673, 423969, 424267, 424569, 424882, 425190, 425480, 425766, 426052, 426352, 426656, 426956, 427267, 427568, 427852, 428140, 428433, 428741, 429048, 429346, 429656, 429947, 430229, 430518, 430817, 431128, 431432, 431729, 432030, 432319, 432605, 432900, 433207, 433521, 433822, 434112, 434408, 434695, 434983, 435286, 435595, 435908, 436202, 436489, 436787, 437077, 437371, 437677, 437985, 438286, 438573, 438860, 439158, 439454, 439756, 440064, 440372, 440665, 440951, 441242, 441543, 441847, 442151, 442452, 442752, 443040, 443324, 443621, 443932, 444238, 444541, 444837, 445133, 445420, 445706, 446015, 446325, 446625, 446924, 447213, 447505, 447795, 448089, 448405, 448716, 449013, 449304, 449591, 449885, 450179, 450479, 450795, 451101, 451390, 451677, 451966, 452268, 452570, 452874, 453189, 453485, 453767, 454052, 454344, 454648, 454953, 455257, 455565, 455854, 456136, 456427, 456729, 457039, 457344, 457646, 457943, 458227, 458512, 458806, 459118, 459427, 459728, 460026, 460319, 460605, 460896, 461199, 461513, 461816, 462107, 462403, 462693, 462980, 463280, 463588, 463900, 464199, 464484, 464781, 465073, 465365, 465672, 465978, 466285, 466575, 466857, 467155, 467452, 467753, 468062, 468368, 468669, 468955, 469238, 469541, 469844, 470143, 470446, 470745, 471037, 471323, 471613, 471923, 472230, 472532, 472831, 473124, 473415, 473701, 474000, 474313, 474619, 474916, 475206, 475498, 475791, 476084, 476392, 476709, 477010, 477299, 477586, 477879, 478171, 478470, 478783, 479093, 479386, 479674, 479964, 480261, 480562, 480865, 481178, 481479, 481764, 482051, 482341, 482645, 482948, 483250, 483562, 483856, 484140, 484430, 484726, 485039, 485343, 485641, 485946, 486233, 486514, 486805, 487110, 487422, 487725, 488021, 488320, 488606, 488890, 489190, 489502, 489809, 490105, 490395, 490689, 490977, 491271, 491576, 491891, 492196, 492484, 492774, 493068, 493360, 493662, 493968, 494278, 494572, 494853, 495148, 495446, 495746, 496054, 496360, 496662, 496949, 497232, 497530, 497833, 498135, 498441, 498740, 499036, 499322, 499609, 499917, 500225, 500529, 500830, 501121, 501415, 501700, 501991, 502307, 502613, 502909, 503204, 503494, 503787, 504078, 504380, 504697, 505000, 505292, 505580, 505870, 506164, 506461, 506768, 507082, 507381, 507668, 507955, 508191, 508461, 508761, 509064, 509379, 509675, 509956, 510241, 510537, 510844, 511148, 511455, 511763, 512052, 512335, 512623, 512927, 513236, 513537, 513841, 514136, 514419, 514706, 515003, 515314, 515624, 515925, 516222, 516514, 516799, 517092, 517396, 517709, 518013, 518302, 518597, 518887, 519176, 519479, 519789, 520100, 520396, 520680, 520977, 521267, 521560, 521868, 522174, 522480, 522767, 523051, 523352, 523650, 523951, 524257, 524564, 524860, 525144, 525430, 525732, 526037, 526335, 526638, 526940, 527230, 527515, 527812, 528121, 528427, 528729, 529024, 529319, 529605, 529891, 530195, 530505, 530808, 531109, 531399, 531694, 531985, 532278, 532591, 532901, 533198, 533492, 533778, 534073, 534366, 534665, 534982, 535290, 535579, 535868, 536158, 536454, 536754, 537057, 537372, 537668, 537952, 538239, 538531, 538836, 539141, 539447, 539758, 540049, 540332, 540619, 540919, 541229, 541532, 541834, 542135, 542422, 542704, 542998, 543308, 543618, 543920, 544220, 544515, 544799, 545087, 545387, 545701, 546005, 546299, 546594, 546885, 547172, 547472, 547781, 548095, 548394, 548679, 548974, 549264, 549557, 549863, 550169, 550480, 550770, 551052, 551352, 551649, 551948, 552255, 552559, 552859, 553144, 553428, 553729, 554030, 554330, 554635, 554937, 555230, 555517, 555808, 556114, 556421, 556723, 557021, 557318, 557606, 557891, 558190, 558501, 558807, 559108, 559401, 559695, 559985, 560271, 560583, 560894, 561193, 561488, 561776, 562068, 562358, 562654, 562972, 563282, 563575, 563866, 564094, 564351, 564647, 564949, 565261, 565567, 565857, 566144, 566431, 566733, 567037, 567340, 567655, 567954, 568236, 568524, 568814, 569120, 569426, 569726, 570036, 570324, 570607, 570900, 571199, 571513, 571817, 572116, 572416, 572704, 572987, 573281, 573588, 573901, 574201, 574493, 574791, 575081, 575368, 575671, 575983, 576291, 576584, 576875, 577169, 577457, 577753, 578060, 578371, 578671, 578958, 579251, 579547, 579840, 580146, 580453, 580760, 581051, 581334, 581628, 581927, 582228, 582535, 582841, 583144, 583430, 583714, 584016, 584321, 584623, 584926, 585223, 585515, 585800, 586086, 586397, 586705, 587006, 587306, 587599, 587891, 588177, 588474, 588788, 589093, 589390, 589680, 589971, 590262, 590555, 590863, 591179, 591481, 591771, 592058, 592352, 592644, 592942, 593256, 593565, 593857, 594145, 594433, 594730, 595029, 595333, 595650, 595950, 596235, 596523, 596811, 597114, 597419, 597721, 598033, 598326, 598609, 598899, 599196, 599509, 599814, 600114, 600418, 600704, 600984, 601275, 601581, 601891, 602194, 602492, 602789, 603075, 603363, 603662, 603975, 604284, 604579, 604871, 605164, 605451, 605745, 606050, 606364, 606670, 606958, 607250, 607546, 607837, 608140, 608447, 608757, 609050, 609332, 609627, 609924, 610040, 610219, 610525, 610832, 611136, 611422, 611705, 612005, 612307, 612609, 612915, 613215, 613510, 613794, 614079, 614388, 614695, 614999, 615301, 615595, 615888, 616173, 616466, 616780, 617087, 617382, 617675, 617967, 618257, 618548, 618855, 619169, 619471, 619766, 620053, 620347, 620637, 620931, 621244, 621554, 621850, 622141, 622428, 622727, 623024, 623323, 623641, 623947, 624233, 624520, 624807, 625108, 625409, 625709, 626027, 626324, 626607, 626895, 627188, 627495, 627801, 628103, 628410, 628698, 628978, 629266, 629568, 629880, 630186, 630488, 630785, 631072, 631358, 631653, 631964, 632275, 632572, 632868, 633161, 633445, 633736, 634040, 634354, 634660, 634952, 635247, 635537, 635824, 636128, 636435, 636746, 637043, 637326, 637621, 637914, 638211, 638520, 638829, 639136, 639424, 639706, 640006, 640304, 640603, 640911, 641214, 641512, 641795, 642081, 642390, 642695, 642996, 643301, 643597, 643888, 644172, 644463, 644775, 645082, 645380, 645678, 645971, 646261, 646551, 646853, 647168, 647472, 647768, 648056, 648351, 648640, 648931, 649244, 649553, 649851
