Results for: 106.dart
========================================
Total Peaks Detected: 2020
Heart Rate: 67.23 BPM
========================================
Peak indices (2020 peaks):
724, 1448, 1829, 2197, 2571, 2919, 3234, 3571, 3931, 4282, 4612, 4947, 5255, 5558, 5863, 6174, 6472, 6757, 7045, 7336, 7615, 7897, 8183, 8475, 8758, 9025, 9271, 9517, 9769, 10038, 10315, 10583, 10884, 11244, 11589, 11935, 12287, 12649, 13001, 13319, 13617, 13918, 14227, 14564, 14902, 15231, 15561, 15900, 16245, 16605, 16997, 17354, 17700, 18025, 18333, 18644, 18964, 19274, 19578, 19869, 20136, 20406, 20690, 20988, 21299, 21636, 22008, 22364, 22689, 23016, 23364, 23719, 24048, 24362, 24683, 25010, 25338, 25697, 26068, 26434, 26786, 27138, 27470, 27810, 28160, 28500, 28801, 29105, 29408, 29712, 30024, 30334, 30630, 30920, 31190, 31462, 31726, 32013, 32335, 32667, 32867, 33040, 33476, 33653, 33818, 34305, 34666, 34857, 35280, 35468, 35635, 36101, 36290, 36757, 36950, 37121, 37581, 37913, 38092, 38264, 38756, 38939, 39115, 39591, 39902, 40086, 40252, 40715, 41033, 41222, 41392, 41837, 42004, 42440, 42625, 42793, 43275, 43460, 43906, 44084, 44507, 44692, 44864, 45350, 45626, 45975, 46156, 46320, 46778, 46958, 47413, 47606, 47780, 48225, 48402, 48566, 49009, 49243, 49371, 49836, 50024, 50425, 50607, 50770, 51212, 51400, 51850, 52038, 52208, 52662, 52917, 53275, 53578, 53873, 54074, 54250, 54716, 54888, 55058, 55558, 55746, 56227, 56547, 56842, 57174, 57495, 57735, 57872, 58345, 58533, 58992, 59169, 59329, 59770, 59953, 60432, 60633, 61083, 61274, 61730, 62099, 62488, 62823, 63128, 63499, 63691, 63861, 63982, 64568, 64764, 65287, 65704, 66104, 66485, 66886, 67301, 67702, 68095, 68464, 68870, 69270, 69635, 69965, 70281, 70618, 70998, 71407, 71816, 72193, 72559, 72945, 73336, 73730, 74087, 74408, 74743, 75138, 75514, 75907, 76288, 76670, 77024, 77400, 77771, 78156, 78500, 78857, 79261, 79650, 80033, 80374, 80686, 81019, 81390, 81804, 82213, 82586, 82944, 83307, 83663, 84034, 84435, 84836, 85213, 85600, 86010, 86380, 86755, 87132, 87507, 87889, 88298, 88711, 89097, 89430, 89742, 90057, 90398, 90777, 91133, 91455, 91753, 92046, 92345, 92658, 93015, 93393, 93713, 94034, 94375, 94716, 95041, 95380, 95716, 95905, 96335, 96662, 97008, 97330, 97619, 97908, 98216, 98513, 98819, 99134, 99470, 99807, 100118, 100441, 100787, 101148, 101518, 101883, 102228, 102558, 102909, 103300, 103666, 104041, 104409, 104777, 105123, 105502, 105898, 106288, 106631, 106977, 107365, 107775, 108153, 108537, 108920, 109289, 109668, 110063, 110431, 110787, 111135, 111469, 111833, 112226, 112615, 112955, 113304, 113672, 114058, 114403, 114738, 115081, 115428, 115764, 116121, 116531, 116908, 117278, 117651, 117989, 118363, 118758, 119140, 119484, 119850, 120223, 120602, 121005, 121401, 121769, 122118, 122470, 122810, 123138, 123483, 123883, 124247, 124644, 125031, 125415, 125788, 126115, 126451, 126812, 127167, 127564, 127954, 128309, 128677, 129048, 129447, 129818, 130184, 130539, 130870, 131233, 131631, 132011, 132382, 132721, 133078, 133465, 133834, 134206, 134568, 134903, 135251, 135615, 135977, 136353, 136723, 137058, 137405, 137757, 138100, 138460, 138818, 139173, 139529, 139875, 140237, 140573, 140920, 141278, 141639, 141974, 142336, 142713, 143069, 143397, 143708, 144034, 144354, 144680, 144988, 145315, 145686, 146065, 146453, 146824, 147192, 147538, 147873, 148192, 148519, 148888, 149301, 149687, 150032, 150385, 150780, 151178, 151573, 151932, 152288, 152664, 153053, 153431, 153786, 154088, 154381, 154683, 155005, 155320, 155634, 155941, 156227, 156499, 156773, 157052, 157339, 157617, 157896, 158171, 158433, 158691, 158938, 159202, 159484, 159785, 160121, 160482, 160656, 161075, 161416, 161750, 162076, 162425, 162779, 162956, 163369, 163708, 164068, 164415, 164736, 165061, 165402, 165753, 166100, 166419, 166725, 167029, 167361, 167696, 168040, 168401, 168769, 169111, 169437, 169757, 170090, 170465, 170824, 171157, 171484, 171830, 172200, 172563, 172908, 173258, 173599, 173919, 174234, 174557, 174888, 175187, 175490, 175782, 176070, 176383, 176699, 177016, 177330, 177617, 177888, 178186, 178495, 178832, 179177, 179502, 179810, 180122, 180442, 180781, 181141, 181501, 181831, 182146, 182464, 182784, 183104, 183434, 183777, 184117, 184431, 184751, 185091, 185453, 185806, 186148, 186495, 186822, 187148, 187508, 187851, 188209, 188549, 188871, 189197, 189514, 189834, 190152, 190481, 190787, 191105, 191451, 191814, 192181, 192549, 192904, 193232, 193566, 193912, 194255, 194606, 194956, 195281, 195604, 195962, 196323, 196685, 197050, 197399, 197735, 198069, 198412, 198763, 199135, 199484, 199803, 200138, 200495, 200856, 201215, 201548, 201858, 202167, 202479, 202778, 203083, 203388, 203682, 203971, 204264, 204577, 204917, 205294, 205666, 206010, 206359, 206703, 207067, 207460, 207832, 208182, 208530, 208889, 209250, 209614, 209971, 210305, 210642, 210989, 211354, 211714, 212080, 212421, 212756, 213115, 213474, 213828, 214185, 214524, 214818, 215131, 215478, 215842, 216204, 216535, 216850, 217160, 217487, 217813, 218136, 218464, 218793, 219123, 219450, 219789, 220143, 220518, 220877, 221225, 221597, 221990, 222392, 222773, 223139, 223497, 223843, 224204, 224563, 224898, 225229, 225549, 225857, 226176, 226496, 226820, 227130, 227420, 227719, 228014, 228338, 228677, 229004, 229332, 229669, 229987, 230287, 230594, 230925, 231265, 231610, 231944, 232246, 232565, 232909, 233259, 233596, 233922, 234243, 234569, 234891, 235228, 235577, 235934, 236268, 236594, 236910, 237236, 237582, 237933, 238245, 238566, 238897, 239256, 239617, 239960, 240279, 240574, 240863, 241171, 241514, 241866, 242232, 242598, 242961, 243305, 243662, 244021, 244356, 244698, 245030, 245368, 245723, 246073, 246414, 246748, 247046, 247339, 247637, 247951, 248257, 248563, 248862, 249161, 249457, 249742, 250043, 250353, 250653, 250959, 251236, 251519, 251812, 252118, 252475, 252829, 253161, 253472, 253762, 254064, 254357, 254669, 254996, 255307, 255614, 255919, 256105, 256508, 256810, 257113, 257403, 257584, 257959, 258140, 258532, 258716, 259127, 259418, 259600, 259991, 260168, 260595, 260888, 261180, 261479, 261668, 262045, 262314, 262577, 262750, 262913, 263355, 263646, 263826, 264211, 264386, 264759, 265041, 265336, 265565, 265931, 266211, 266428, 266553, 266939, 267154, 267492, 267760, 267946, 268121, 268507, 268744, 269003, 269217, 269526, 269741, 270042, 270250, 270547, 270790, 271027, 271191, 271515, 271686, 272046, 272219, 272580, 272748, 273080, 273240, 273592, 273766, 274133, 274312, 274684, 274848, 275191, 275360, 275688, 275902, 276204, 276379, 276719, 276895, 277226, 277390, 277719, 277882, 278232, 278412, 278770, 278941, 279270, 279429, 279739, 279900, 280228, 280399, 280728, 280898, 281224, 281388, 281707, 281867, 282204, 282361, 282714, 282925, 283229, 283400, 283715, 283872, 284183, 284352, 284690, 284862, 285200, 285365, 285694, 285847, 286168, 286332, 286663, 286830, 287182, 287354, 287720, 287882, 288230, 288389, 288745, 288915, 289297, 289477, 289830, 289996, 290318, 290486, 290817, 290992, 291330, 291508, 291843, 292016, 292336, 292503, 292835, 293003, 293365, 293538, 293921, 294097, 294443, 294650, 294949, 295145, 295466, 295664, 296006, 296183, 296534, 296701, 297055, 297223, 297612, 297789, 298207, 298384, 298793, 298960, 299366, 299538, 299996, 300178, 300610, 300785, 301212, 301387, 301827, 302008, 302442, 302631, 303032, 303206, 303576, 303752, 304159, 304342, 304782, 304966, 305379, 305549, 305973, 306159, 306598, 306786, 307188, 307391, 307751, 307931, 308343, 308530, 308961, 309154, 309569, 309741, 310135, 310721, 310918, 311314, 311496, 311872, 312099, 312209, 312638, 312815, 313216, 313397, 313575, 313994, 314230, 314546, 314722, 315115, 315357, 315692, 315952, 316221, 316391, 316750, 316931, 317315, 317493, 317873, 318047, 318436, 318609, 318997, 319175, 319583, 319816, 320165, 320341, 320689, 320949, 321184, 321322, 321758, 322018, 322330, 322526, 322885, 323063, 323472, 323687, 324067, 324350, 324616, 324878, 325060, 325221, 325623, 325910, 326191, 326463, 326645, 327027, 327201, 327578, 327798, 328158, 328438, 328620, 328791, 329208, 329464, 329767, 329977, 330369, 330651, 330946, 331241, 331551, 331728, 332174, 332514, 332838, 333164, 333515, 333837, 334166, 334516, 334854, 335177, 335496, 335797, 336107, 336422, 336750, 337068, 337362, 337655, 337947, 338236, 338551, 338874, 339186, 339505, 339819, 340122, 340437, 340781, 341115, 341456, 341799, 342110, 342430, 342773, 343110, 343449, 343772, 344088, 344406, 344705, 345023, 345357, 345684, 346011, 346322, 346615, 346899, 347169, 347457, 347753, 347954, 348117, 348514, 348695, 349048, 349589, 349772, 350124, 350347, 350657, 350904, 351083, 351240, 351653, 351839, 352242, 352514, 352781, 352956, 353546, 354156, 354748, 355013, 355273, 355537, 355810, 356114, 356424, 356657, 357013, 357300, 357572, 357875, 358213, 358499, 358830, 359135, 359418, 359603, 359770, 360202, 360474, 360817, 361113, 361386, 361608, 361721, 362144, 362418, 362778, 363076, 363365, 363646, 363922, 364199, 364482, 364789, 365084, 365376, 365676, 365969, 366246, 366521, 366816, 367131, 367442, 367733, 368016, 368302, 368594, 368896, 369202, 369505, 369794, 370090, 370399, 370704, 371019, 371348, 371665, 371991, 372305, 372595, 372922, 373279, 373628, 373941, 374246, 374527, 374817, 375131, 375473, 375803, 376161, 376518, 376842, 377190, 377549, 377768, 378246, 378459, 378856, 379154, 379454, 379791, 379988, 380155, 380625, 380804, 381245, 381422, 381587, 382055, 382269, 382722, 382901, 383325, 383507, 383962, 384152, 384652, 384833, 385283, 385465, 385927, 386109, 386609, 386796, 387279, 387455, 387909, 388119, 388592, 388790, 389253, 389598, 389920, 390108, 390281, 390780, 390990, 391457, 391653, 391815, 392256, 392462, 392911, 393111, 393573, 393903, 394084, 394525, 394868, 395075, 395252, 395715, 395923, 396343, 396527, 396977, 397172, 397648, 397996, 398180, 398351, 398815, 399047, 399493, 399869, 400211, 400566, 400806, 400806, 401235, 401621, 401980, 402358, 402595, 403003, 403354, 403561, 403753, 404238, 404520, 404874, 405059, 405507, 405729, 406196, 406537, 406732, 406909, 407348, 407531, 407994, 408327, 408523, 408702, 409138, 409311, 409759, 409952, 410411, 410601, 411048, 411228, 411648, 411830, 412276, 412466, 412937, 413116, 413546, 413723, 414181, 414374, 414854, 415043, 415490, 415668, 416125, 416319, 416783, 416977, 417433, 417615, 418056, 418234, 418701, 418898, 419369, 419551, 419996, 420171, 420623, 420818, 421291, 421474, 421927, 422108, 422540, 422719, 423197, 423384, 423846, 424030, 424474, 424652, 425136, 425329, 425801, 425983, 426415, 426597, 427040, 427232, 427682, 428030, 428377, 428567, 428997, 429334, 429691, 430034, 430234, 430677, 431023, 431370, 431729, 432093, 432450, 432794, 433157, 433354, 433827, 434228, 434602, 434968, 435334, 435526, 436008, 436394, 436598, 437054, 437425, 437617, 438091, 438295, 438754, 439408, 439596, 439769, 440248, 440447, 440928, 441116, 441568, 441747, 442204, 442401, 442881, 443070, 443535, 443716, 444163, 444349, 444823, 445185, 445386, 445817, 445998, 446447, 446651, 447085, 447286, 447679, 447866, 448295, 448626, 448823, 449288, 449496, 449961, 450139, 450571, 450762, 451233, 451593, 451792, 452237, 452586, 452777, 453263, 453460, 453954, 454148, 454605, 454794, 455269, 455473, 455959, 456156, 456608, 456789, 457256, 457460, 457940, 458136, 458601, 458785, 459218, 459543, 459895, 460098, 460583, 460935, 461270, 461646, 462055, 462437, 462826, 463210, 463594, 463964, 464358, 464753, 465135, 465504, 465879, 466295, 466701, 467086, 467452, 467844, 468247, 468625, 469011, 469379, 469758, 470139, 470523, 470923, 471279, 471630, 472017, 472404, 472777, 473160, 473528, 473893, 474239, 474595, 474987, 475405, 475811, 476210, 476608, 477010, 477416, 477810, 478186, 478548, 478946, 479349, 479741, 480157, 480525, 480891, 481278, 481684, 482100, 482465, 482855, 483247, 483656, 484024, 484387, 484754, 485114, 485451, 485813, 486202, 486575, 486920, 487281, 487632, 488035, 488404, 488776, 489159, 489514, 489902, 490297, 490658, 491007, 491365, 491725, 492105, 492497, 492881, 493242, 493581, 493930, 494290, 494664, 495055, 495412, 495772, 496151, 496536, 496928, 497312, 497671, 498015, 498353, 498710, 499063, 499430, 499793, 500132, 500497, 500893, 501269, 501647, 502007, 502351, 502721, 503121, 503524, 503919, 504293, 504701, 505108, 505518, 505915, 506283, 506657, 507039, 507438, 507860, 508242, 508633, 509017, 509414, 509828, 510217, 510603, 510953, 511348, 511749, 512126, 512474, 512788, 513098, 513402, 513721, 514037, 514336, 514636, 514929, 515230, 515532, 515843, 516146, 516453, 516780, 516966, 517393, 517707, 517902, 518363, 518712, 518900, 519328, 519558, 519948, 520173, 520592, 520783, 520962, 521410, 521582, 522038, 522222, 522692, 522935, 523339, 523512, 523932, 524111, 524593, 524790, 525253, 525434, 525885, 526058, 526517, 526708, 527179, 527370, 527798, 527973, 528382, 528563, 529019, 529207, 529672, 529847, 530285, 530460, 530923, 531114, 531590, 531777, 532223, 532397, 532810, 532998, 533447, 533635, 534071, 534245, 534634, 534871, 535257, 535441, 535903, 536086, 536519, 536749, 537159, 537391, 537823, 538015, 538457, 538637, 539065, 539293, 539703, 540036, 540272, 540416, 540870, 541081, 541490, 541810, 542007, 542191, 542661, 542838, 543274, 543450, 543906, 544111, 544572, 544757, 545196, 545374, 545788, 545985, 546164, 546631, 546814, 547269, 547443, 547863, 548044, 548506, 548695, 549134, 549312, 549737, 549914, 550357, 550550, 550994, 551180, 551597, 551774, 552197, 552382, 552839, 553032, 553492, 553677, 554115, 554298, 554758, 554953, 555425, 555612, 556035, 556218, 556678, 556866, 557337, 557526, 557973, 558186, 558594, 558776, 559249, 559451, 559924, 560105, 560279, 560730, 560919, 561382, 561581, 561760, 562230, 562410, 562880, 563065, 563243, 563759, 564146, 564497, 564687, 564852, 565338, 565756, 565958, 566129, 566620, 566799, 566969, 567457, 567850, 568197, 568562, 568757, 568929, 569392, 569787, 570197, 570594, 570977, 571391, 571770, 572127, 572496, 572898, 573259, 573649, 574069, 574478, 574893, 575311, 575737, 576185, 576618, 577058, 577458, 577858, 578240, 578656, 579103, 579529, 579873, 580226, 580604, 580952, 581292, 581504, 581680, 582134, 582480, 582836, 583183, 583390, 583571, 584065, 584460, 584865, 585074, 585259, 585778, 586184, 586376, 586546, 587071, 587510, 587713, 587892, 588394, 588831, 589023, 589204, 589758, 589949, 590123, 590618, 591021, 591215, 591391, 591926, 592352, 592541, 592708, 593214, 593647, 593849, 594028, 594550, 594966, 595155, 595320, 595846, 596305, 596500, 596676, 597174, 597364, 597533, 598061, 598523, 598719, 598895, 599388, 599565, 599734, 600277, 600707, 600906, 601074, 601572, 601984, 602185, 602367, 602902, 603298, 603487, 603653, 604147, 604570, 604772, 604954, 605452, 605834, 606024, 606198, 606699, 607133, 607330, 607510, 607993, 608179, 608350, 608853, 609042, 609223, 609708, 609977, 610319, 610510, 610677, 611164, 611355, 611526, 611988, 612186, 612630, 612823, 613018, 613516, 613757, 614171, 614511, 614694, 615159, 615527, 615730, 616212, 616565, 616751, 616930, 617448, 617876, 618073, 618561, 618756, 618940, 619451, 619877, 620081, 620274, 620775, 621146, 621340, 621522, 622062, 622476, 622845, 623039, 623223, 623724, 624132, 624338, 624521, 625018, 625370, 625559, 626017, 626253, 626675, 626983, 627318, 627629, 627830, 628008, 628493, 628781, 629117, 629406, 629681, 629971, 630259, 630569, 630774, 630947, 631401, 631598, 631982, 632305, 632509, 632688, 633131, 633316, 633703, 633883, 634049, 634470, 634661, 635076, 635268, 635656, 635837, 636228, 636406, 636840, 637037, 637473, 637661, 638079, 638256, 638662, 638855, 639301, 639490, 639900, 640084, 640257, 640692, 640876, 641308, 641617, 641808, 641987, 642400, 642571, 642970, 643157, 643560, 643761, 644140, 644413, 644600, 644766, 645187, 645402, 645801, 645996, 646176, 646616, 646916, 647224, 647570, 647778, 648265, 648622, 648969, 649162, 649335, 649792
