Results for: 107.dart
========================================
Total Peaks Detected: 2149
Heart Rate: 71.54 BPM
========================================
Peak indices (2149 peaks):
642, 1516, 1578, 1816, 1816, 2184, 2411, 2718, 3030, 3106, 3344, 3734, 3968, 4264, 4556, 4856, 5166, 5568, 5802, 6107, 6405, 6709, 7010, 7316, 7630, 7943, 8251, 8548, 8842, 8914, 9140, 9459, 9778, 9856, 10087, 10395, 10691, 10992, 11292, 11601, 11915, 12238, 12543, 12836, 13132, 13428, 13744, 14066, 14380, 14685, 14989, 15285, 15581, 15887, 16202, 16519, 16904, 17126, 17418, 17725, 18037, 18431, 18665, 18973, 19274, 19573, 19943, 20170, 20492, 20811, 21117, 21414, 21712, 22011, 22325, 22641, 22953, 23264, 23568, 23863, 24158, 24463, 24777, 25098, 25408, 25707, 26003, 26311, 26618, 26927, 27242, 27550, 27851, 28149, 28447, 28748, 29072, 29388, 29695, 29997, 30292, 30594, 30905, 31217, 31527, 31845, 32085, 32399, 32693, 32997, 33312, 33634, 33946, 34246, 34544, 34847, 35151, 35459, 35775, 36088, 36395, 36689, 36981, 37286, 37609, 37927, 38237, 38542, 38835, 39134, 39435, 39744, 40061, 40383, 40686, 41052, 41274, 41575, 41893, 42211, 42525, 42828, 43131, 43427, 43724, 44033, 44347, 44665, 44973, 45270, 45564, 45874, 46188, 46499, 46809, 47114, 47414, 47712, 48011, 48318, 48643, 48956, 49258, 49556, 49852, 50156, 50470, 50784, 51095, 51409, 51706, 51999, 52296, 52603, 52924, 53245, 53551, 53845, 54147, 54449, 54757, 55069, 55384, 55693, 55996, 56289, 56581, 56895, 57217, 57533, 57838, 58138, 58435, 58737, 59042, 59353, 59671, 59985, 60283, 60575, 60873, 61179, 61500, 61817, 62126, 62425, 62728, 63027, 63328, 63641, 63955, 64269, 64571, 64866, 65161, 65475, 65793, 66105, 66414, 66713, 67010, 67312, 67617, 67925, 68247, 68559, 68858, 69151, 69451, 69760, 70081, 70395, 70702, 71005, 71304, 71602, 71903, 72218, 72534, 72849, 73150, 73444, 73743, 74056, 74372, 74682, 74996, 75296, 75594, 75890, 76189, 76503, 76830, 77143, 77442, 77738, 78033, 78340, 78653, 78966, 79279, 79590, 79884, 80175, 80477, 80788, 81110, 81426, 81731, 82025, 82329, 82631, 82938, 83254, 83564, 83872, 84171, 84466, 84764, 85086, 85404, 85713, 86018, 86387, 86610, 86914, 87224, 87535, 87934, 88161, 88454, 88749, 89049, 89365, 89688, 90001, 90303, 90604, 90901, 91198, 91505, 91822, 92140, 92451, 92747, 93038, 93344, 93589, 93928, 94238, 94547, 94845, 95144, 95440, 95741, 96060, 96384, 96693, 96989, 97285, 97658, 97894, 98209, 98522, 98831, 99211, 99432, 99726, 100030, 100344, 100665, 100977, 101279, 101573, 101879, 102185, 102495, 102809, 103119, 103421, 103723, 104019, 104319, 104640, 105040, 105271, 105568, 105864, 106164, 106473, 106785, 107096, 107412, 107715, 108010, 108304, 108611, 108927, 109248, 109560, 109859, 110155, 110458, 110763, 111072, 111389, 111700, 112005, 112302, 112597, 112899, 113225, 113543, 113850, 114153, 114446, 114747, 115051, 115362, 115676, 115999, 116301, 116668, 116890, 117191, 117510, 117828, 118139, 118441, 118745, 119040, 119337, 119648, 119963, 120279, 120588, 120886, 121178, 121487, 121801, 122113, 122426, 122729, 123028, 123329, 123628, 123934, 124258, 124573, 124876, 125171, 125467, 125771, 126087, 126161, 126402, 126710, 127021, 127098, 127319, 127613, 127909, 128219, 128540, 128860, 129166, 129460, 129760, 130062, 130371, 130684, 130999, 131308, 131610, 131904, 132197, 132509, 132834, 133150, 133454, 133753, 134049, 134426, 134658, 134969, 135288, 135602, 135900, 136192, 136490, 136798, 137120, 137435, 137741, 138039, 138342, 138641, 138942, 139257, 139570, 139882, 140183, 140480, 140776, 141093, 141410, 141720, 142029, 142326, 142625, 142928, 143233, 143543, 143866, 144176, 144475, 144768, 145067, 145377, 145696, 146010, 146316, 146620, 146917, 147214, 147514, 147832, 148150, 148465, 148765, 149059, 149359, 149670, 149985, 150297, 150610, 150908, 151207, 151505, 151806, 152120, 152447, 152761, 153059, 153355, 153650, 153959, 154272, 154585, 154897, 155207, 155503, 155795, 156097, 156410, 156731, 157046, 157348, 157642, 157946, 158249, 158557, 158871, 159183, 159490, 159788, 160084, 160383, 160707, 161024, 161333, 161714, 161930, 162229, 162536, 162845, 163158, 163479, 163783, 164149, 164370, 164671, 164988, 165308, 165621, 165921, 166224, 166520, 166816, 167125, 167442, 167758, 168069, 168366, 168658, 168966, 169278, 169593, 169904, 170209, 170509, 170810, 171108, 171412, 171734, 172052, 172432, 172653, 172950, 173251, 173567, 173880, 174189, 174502, 174802, 175097, 175392, 175701, 176020, 176339, 176645, 176940, 177239, 177543, 177852, 178164, 178480, 178786, 179087, 179383, 179680, 179987, 180313, 180630, 180934, 181233, 181527, 181830, 182092, 182426, 182739, 183056, 183354, 183645, 183942, 184247, 184567, 184887, 185198, 185494, 185795, 186093, 186396, 186707, 187025, 187338, 187645, 187938, 188231, 188542, 188862, 189178, 189487, 189788, 190084, 190385, 190687, 190996, 191315, 191633, 191936, 192227, 192527, 192832, 193152, 193465, 193774, 194079, 194380, 194677, 194976, 195289, 195605, 195920, 196223, 196518, 196816, 197128, 197441, 197752, 198065, 198366, 198664, 198961, 199261, 199572, 199899, 200213, 200514, 200810, 201104, 201411, 201724, 202038, 202350, 202662, 202958, 203248, 203547, 203859, 204182, 204496, 204802, 205096, 205400, 205700, 206006, 206322, 206401, 206634, 206943, 207240, 207535, 207833, 208154, 208550, 208783, 209166, 209383, 209684, 209986, 210368, 210606, 210930, 211236, 211530, 211825, 212124, 212439, 212761, 213073, 213296, 213624, 213922, 214219, 214521, 214837, 215155, 215468, 215765, 216058, 216361, 216673, 216988, 217300, 217611, 217909, 218207, 218504, 218806, 219123, 219447, 219758, 220055, 220352, 220647, 220959, 221274, 221508, 221839, 222149, 222443, 222735, 223115, 223348, 223668, 223986, 224291, 224582, 224884, 225188, 225499, 225812, 226125, 226431, 226732, 227025, 227322, 227640, 227963, 228278, 228579, 228877, 229174, 229480, 229789, 230101, 230416, 230727, 231024, 231389, 231619, 231932, 232255, 232567, 232646, 232869, 233168, 233471, 233844, 234077, 234394, 234706, 235015, 235311, 235605, 235906, 236227, 236546, 236855, 237162, 237456, 237755, 238055, 238363, 238678, 239002, 239308, 239603, 239899, 240197, 240512, 240831, 241143, 241448, 241753, 242049, 242343, 242649, 242965, 243284, 243593, 243891, 244186, 244493, 244802, 245112, 245505, 245733, 246035, 246333, 246630, 246934, 247260, 247576, 247882, 248181, 248475, 248778, 249088, 249402, 249713, 250031, 250329, 250622, 250917, 251222, 251543, 251865, 252173, 252469, 252771, 253071, 253374, 253686, 254001, 254315, 254617, 254911, 255204, 255516, 255835, 256151, 256459, 256761, 257056, 257358, 257662, 257972, 258291, 258607, 258908, 259273, 259499, 259803, 260124, 260440, 260750, 261051, 261353, 261650, 261947, 262260, 262575, 262892, 263195, 263491, 263785, 264098, 264413, 264724, 265037, 265338, 265636, 265936, 266238, 266548, 266871, 267186, 267487, 267783, 268079, 268386, 268706, 269020, 269327, 269635, 269934, 270229, 270527, 270840, 271160, 271480, 271782, 272283, 272590, 272900, 273211, 273526, 273831, 274132, 274427, 274723, 275032, 275359, 275675, 275980, 276278, 276573, 276875, 277182, 277497, 277811, 278128, 278426, 278718, 279015, 279320, 279643, 279960, 280269, 280567, 280870, 281168, 281468, 281782, 282097, 282410, 282684, 282942, 283235, 283548, 283864, 284176, 284487, 284789, 285087, 285388, 285690, 285998, 286320, 286634, 286935, 287230, 287526, 287833, 288148, 288422, 288730, 289039, 289339, 289636, 289931, 290243, 290560, 290880, 291183, 291477, 291777, 292085, 292397, 292709, 293023, 293328, 293627, 293921, 294218, 294528, 294854, 295169, 295472, 295770, 296064, 296317, 296591, 296905, 297216, 297532, 297831, 298125, 298422, 298726, 299045, 299370, 299679, 299975, 300275, 300576, 300881, 301190, 301507, 301820, 302122, 302416, 302711, 303018, 303340, 303658, 303967, 304269, 304516, 304778, 305083, 305393, 305707, 306028, 306332, 306626, 306922, 307222, 307541, 307863, 308176, 308476, 308778, 309076, 309374, 309682, 309998, 310317, 310628, 310922, 311214, 311523, 311839, 312154, 312464, 312769, 313068, 313368, 313665, 313970, 314293, 314610, 314916, 315212, 315509, 315811, 316127, 316441, 316750, 317061, 317306, 317566, 317861, 318165, 318480, 318802, 319113, 319413, 319709, 320015, 320321, 320630, 320944, 321254, 321557, 321852, 322148, 322452, 322776, 323093, 323399, 323702, 323996, 324297, 324602, 324914, 325228, 325549, 325849, 326141, 326391, 326653, 326971, 327294, 327607, 327908, 328210, 328508, 328807, 329114, 329430, 329746, 330057, 330351, 330643, 330950, 331266, 331562, 331835, 332144, 332441, 332739, 333036, 333339, 333657, 333980, 334288, 334583, 334880, 335125, 335396, 335717, 336033, 336341, 336649, 336943, 337238, 337539, 337852, 338172, 338491, 338792, 339084, 339386, 339695, 340007, 340318, 340632, 340935, 341234, 341529, 341827, 342143, 342465, 342778, 343079, 343379, 343674, 343981, 344293, 344605, 344920, 345230, 345526, 345818, 346121, 346431, 346754, 347069, 347373, 347669, 347974, 348276, 348582, 348898, 349209, 349519, 349816, 350084, 350343, 350663, 350982, 351293, 351600, 351899, 352196, 352499, 352805, 353117, 353440, 353747, 354042, 354337, 354636, 354948, 355272, 355587, 355891, 356194, 356455, 356715, 357017, 357331, 357647, 357965, 358263, 358555, 358857, 359167, 359484, 359794, 360107, 360407, 360705, 361001, 361300, 361617, 361939, 362251, 362490, 362751, 363046, 363271, 363607, 363922, 364233, 364547, 364844, 365137, 365435, 365741, 366062, 366383, 366690, 366985, 367288, 367590, 367848, 368119, 368436, 368747, 369052, 369345, 369638, 369945, 370267, 370585, 370894, 371197, 371493, 371792, 372094, 372404, 372721, 373041, 373342, 373634, 373931, 374231, 374550, 374869, 375183, 375485, 375788, 376083, 376381, 376692, 377006, 377324, 377632, 377886, 378141, 378446, 378762, 379078, 379389, 379697, 379995, 380294, 380591, 380895, 381216, 381536, 381842, 382136, 382436, 382735, 383050, 383366, 383632, 383904, 384210, 384505, 384799, 385103, 385416, 385738, 386053, 386352, 386646, 386951, 387260, 387571, 387885, 388195, 388499, 388798, 389094, 389393, 389717, 389988, 390264, 390565, 390864, 391162, 391467, 391777, 392087, 392405, 392714, 393010, 393302, 393604, 393916, 394239, 394551, 394854, 395155, 395456, 395757, 396064, 396380, 396694, 397005, 397300, 397592, 397894, 398212, 398531, 398797, 399068, 399366, 399664, 399963, 400267, 400581, 400906, 401214, 401507, 401803, 402101, 402412, 402731, 403045, 403354, 403662, 403957, 404251, 404555, 404867, 405153, 405430, 405731, 406022, 406326, 406632, 406945, 407258, 407570, 407875, 408176, 408469, 408766, 409006, 409293, 409609, 409911, 410210, 410506, 410809, 411118, 411431, 411746, 412013, 412346, 412563, 412860, 413163, 413480, 413804, 414115, 414413, 414715, 415015, 415318, 415629, 415945, 416202, 416472, 416768, 417062, 417362, 417682, 418000, 418309, 418614, 418911, 419166, 419431, 419737, 420048, 420371, 420679, 420975, 421269, 421568, 421878, 422159, 422515, 422743, 423048, 423349, 423646, 423947, 424338, 424575, 424893, 425194, 425487, 425732, 426006, 426321, 426634, 427026, 427251, 427552, 427850, 428148, 428455, 428782, 429096, 429397, 429693, 429769, 429990, 430293, 430609, 430925, 431235, 431464, 431785, 432080, 432375, 432681, 433000, 433322, 433628, 433997, 434226, 434450, 434781, 435093, 435409, 435721, 436025, 436318, 436611, 436919, 437239, 437556, 437863, 438166, 438463, 438764, 439067, 439377, 439695, 440013, 440313, 440605, 440903, 441206, 441524, 441841, 442151, 442457, 442758, 443056, 443355, 443670, 443984, 444302, 444603, 444895, 445192, 445502, 445819, 446131, 446445, 446748, 447048, 447343, 447641, 447955, 448279, 448593, 448891, 449187, 449483, 449789, 450102, 450418, 450731, 451045, 451340, 451631, 451931, 452240, 452560, 452877, 453181, 453476, 453781, 454083, 454391, 454708, 454950, 455282, 455585, 455879, 456173, 456486, 456806, 457119, 457422, 457722, 458022, 458326, 458634, 458945, 459265, 459575, 459872, 460164, 460465, 460772, 461093, 461408, 461713, 462016, 462318, 462618, 462922, 463240, 463553, 463866, 464163, 464456, 464755, 465070, 465388, 465699, 466011, 466310, 466611, 466908, 467212, 467527, 467852, 468162, 468455, 468752, 469049, 469358, 469674, 469990, 470301, 470610, 470905, 471198, 471502, 471814, 472134, 472447, 472745, 473041, 473347, 473653, 473966, 474282, 474593, 474898, 475193, 475488, 475792, 476114, 476431, 476737, 477037, 477332, 477634, 477939, 478253, 478569, 478889, 479189, 479479, 479776, 480078, 480395, 480712, 481023, 481325, 481630, 481928, 482228, 482542, 482855, 483173, 483477, 483770, 484064, 484375, 484690, 485000, 485314, 485616, 485918, 486216, 486516, 486827, 487153, 487465, 487764, 488059, 488353, 488658, 488972, 489288, 489600, 489913, 490210, 490502, 490802, 491112, 491430, 491749, 492128, 492346, 492648, 492950, 493338, 493576, 493889, 493968, 494200, 494577, 494798, 495093, 495407, 495804, 496040, 496415, 496640, 497010, 497241, 497550, 497800, 498148, 498398, 498696, 498985, 499357, 499588, 499907, 500225, 500606, 500832, 501210, 501436, 501738, 502054, 502447, 502685, 502988, 503248, 503574, 503811, 504127, 504204, 504444, 504753, 505057, 505356, 505431, 505659, 505959, 506270, 506550, 506869, 507174, 507244, 507465, 507761, 507833, 508062, 508378, 508693, 509003, 509249, 509521, 509818, 510112, 510419, 510732, 511020, 511371, 511595, 511854, 512117, 512421, 512733, 512984, 513262, 513569, 513874, 514108, 514370, 514646, 514926, 515241, 515552, 515852, 516147, 516446, 516753, 517065, 517378, 517698, 518004, 518298, 518591, 518892, 519206, 519527, 519839, 520139, 520441, 520739, 521038, 521350, 521667, 521984, 522296, 522591, 522880, 523185, 523499, 523815, 524123, 524429, 524728, 525032, 525329, 525715, 525961, 526278, 526583, 526949, 527171, 527546, 527787, 528100, 528411, 528722, 528800, 529024, 529321, 529617, 529929, 530246, 530565, 530871, 531164, 531461, 531765, 532074, 532388, 532704, 533011, 533315, 533612, 533908, 534218, 534542, 534931, 535159, 535456, 535749, 536052, 536359, 536676, 536992, 537310, 537609, 537900, 538200, 538505, 538825, 539141, 539449, 539745, 540049, 540349, 540651, 541176, 541491, 541800, 542094, 542385, 542692, 542942, 543282, 543591, 543967, 544193, 544494, 544793, 545103, 545425, 545505, 545746, 546053, 546346, 546641, 546941, 547255, 547570, 547881, 548189, 548492, 548789, 549086, 549399, 549717, 550034, 550339, 550633, 550929, 551235, 551545, 551618, 551858, 552172, 552477, 552781, 553078, 553375, 553687, 554011, 554517, 554815, 555108, 555409, 555715, 556029, 556343, 556664, 556965, 557256, 557553, 557858, 558177, 558471, 558743, 559041, 559342, 559640, 559939, 560250, 560490, 560829, 561142, 561439, 561730, 562033, 562348, 562664, 562973, 563280, 563577, 563880, 564176, 564480, 564805, 564884, 565125, 565432, 565727, 566023, 566322, 566635, 566948, 567196, 567470, 567778, 568074, 568367, 568673, 568929, 569210, 569530, 569834, 570125, 570425, 570661, 570934, 571246, 571561, 571868, 572171, 572421, 572684, 572986, 573310, 573627, 573934, 574232, 574525, 574825, 575133, 575447, 575523, 575759, 576078, 576379, 576674, 576971, 577276, 577594, 577916, 578225, 578523, 578821, 579121, 579424, 579734, 580053, 580368, 580677, 580972, 581265, 581572, 581891, 582207, 582514, 582819, 583115, 583417, 583717, 584025, 584348, 584668, 584971, 585264, 585561, 585864, 586181, 586494, 586802, 587110, 587409, 587707, 588005, 588319, 588638, 588956, 589259, 589554, 589852, 590158, 590470, 590782, 591095, 591401, 591703, 591998, 592294, 592610, 592934, 593247, 593548, 593847, 594141, 594446, 594753, 595064, 595383, 595693, 595989, 596282, 596584, 596896, 596972, 597220, 597532, 597834, 598134, 598433, 598732, 599037, 599355, 599671, 599983, 600279, 600573, 600875, 601192, 601511, 601818, 602126, 602423, 602723, 603019, 603322, 603643, 603964, 604272, 604568, 604866, 605165, 605477, 605791, 606103, 606413, 606716, 607012, 607307, 607614, 607928, 608250, 608560, 608858, 609155, 609461, 609768, 610078, 610392, 610699, 611003, 611300, 611598, 611902, 612228, 612546, 612850, 613149, 613443, 613744, 614052, 614366, 614678, 614997, 615295, 615587, 615886, 616191, 616511, 616833, 617144, 617440, 617742, 618040, 618343, 618654, 618897, 619174, 619484, 619778, 620071, 620374, 620694, 621014, 621323, 621630, 621925, 622225, 622523, 622829, 623074, 623363, 623672, 623965, 624263, 624560, 624871, 625189, 625707, 626015, 626311, 626606, 626906, 627220, 627539, 627782, 628052, 628349, 628647, 628953, 629263, 629576, 629890, 630195, 630497, 630792, 631088, 631397, 631722, 632039, 632343, 632611, 632868, 633170, 633477, 633789, 634102, 634423, 634721, 635011, 635309, 635613, 635933, 636196, 636472, 636772, 637075, 637372, 637670, 637981, 638294, 638612, 638921, 639216, 639507, 639814, 640130, 640445, 640755, 641061, 641361, 641661, 641959, 642263, 642587, 642903, 643207, 643501, 643798, 644101, 644417, 644734, 645042, 645355, 645653, 645947, 646442, 646754, 647075, 647386, 647635, 647892, 648196, 648500, 648811, 649125, 649437, 649744
