peak_index
805
1519
1763
1991
2216
2432
2657
2880
3113
3349
3582
3809
4038
4262
4477
4687
4905
5125
5356
5588
5816
6044
6260
6480
6694
6915
7131
7355
7582
7821
8064
8290
8509
8735
8969
9194
9420
9658
9900
10145
10389
10618
10843
11073
11310
11546
11782
12028
12275
12521
12763
12995
13227
13462
13714
13968
14210
14460
14711
14956
15199
15434
15668
15916
16180
16435
16684
16934
17176
17422
17661
17901
18152
18420
18677
18926
19173
19413
19658
19906
20149
20398
20666
20927
21178
21423
21666
21908
22158
22405
22658
22920
23186
23437
23675
23916
24156
24406
24662
24920
25177
25446
25697
25935
26176
26420
26676
26937
27198
27452
27704
27704
27962
28202
28450
28697
28958
29228
29488
29741
30002
30253
30498
30742
30996
31257
31529
31789
32040
32293
32549
32798
33040
33296
33558
33823
34085
34333
34578
34836
35084
35329
35588
35851
36117
36376
36626
36872
37129
37381
37637
37900
38162
38429
38689
38935
39176
39431
39688
39950
40210
40471
40728
40982
41226
41468
41719
41986
42248
42501
42761
43010
43262
43510
43759
44008
44281
44545
44798
45052
45300
45547
45778
46044
46289
46554
46817
47074
47314
47556
47794
48042
48289
48544
48802
49071
49326
49565
49807
50047
50297
50556
50809
51061
51327
51578
51819
52057
52300
52549
52809
53066
53318
53576
53831
54071
54305
54548
54790
55047
55305
55558
55803
56054
56295
56530
56771
57019
57281
57548
57801
58046
58296
58545
58792
59036
59294
59559
59827
60081
60327
60579
60832
61080
61331
61595
61857
62123
62376
62619
62863
63119
63369
63617
63876
64129
64386
64634
64873
65106
65355
65607
65860
66111
66368
66624
66876
67116
67354
67606
67869
68131
68386
68644
68893
69143
69384
69627
69878
70146
70406
70660
70914
71158
71404
71654
71900
72148
72414
72678
72935
73183
73430
73674
73927
74177
74429
74694
74968
75224
75465
75710
75952
76204
76461
76724
76982
77254
77509
77752
77998
78246
78504
78769
79030
79285
79548
79802
80047
80287
80537
80795
81062
81322
81576
81833
82087
82333
82574
82826
83083
83351
83613
83867
84117
84376
84620
85111
85366
85634
85894
86141
86378
86626
86864
87100
87341
87589
87839
88082
88318
88548
88774
89017
89252
89488
89730
89977
90228
90476
90705
90933
91172
91422
91671
91917
92170
92421
92674
92918
93158
93403
93668
93930
94188
94452
94711
94968
95221
95472
95724
96001
96274
96537
96803
97059
97318
97574
97829
98089
98370
98642
98899
99155
99405
99663
99917
100175
100439
100719
100980
101232
101481
101725
101977
102234
102490
102749
103021
103281
103529
103777
104025
104280
104538
104814
105073
105343
105604
105852
106095
106347
106603
106869
107135
107394
107654
107918
108168
108411
108667
108930
109201
109469
109732
109988
110247
110497
110743
111000
111262
111535
111800
112056
112307
112568
112820
113073
113338
113604
113880
114145
114397
114641
114904
115159
115413
115681
115946
116215
116478
116728
116972
117239
117499
117759
118024
118286
118543
118793
119030
119270
119525
119781
120039
120290
120536
120777
121012
121238
121465
121695
121950
122187
122426
122660
122889
123115
123350
123572
123798
124034
124286
124524
124755
124988
125217
125450
125685
125914
126148
126394
126649
126890
127118
127351
127578
127814
128054
128293
128536
128791
129045
129292
129523
129757
129992
130238
130487
130740
130990
131253
131504
131743
131979
132220
132474
132739
132994
133248
133513
133771
134017
134257
134508
134762
135031
135295
135552
135811
136070
136318
136560
136814
137072
137342
137607
137868
138114
138370
138616
138859
139111
139372
139641
139910
140164
140405
140656
140907
141160
141412
141676
141940
142202
142446
142687
142934
143188
143440
143693
143954
144207
144464
144710
144952
145193
145453
145710
145968
146228
146485
146740
146995
147241
147483
147749
148019
148281
148535
148792
149043
149295
149539
149785
150051
150323
150586
150835
151087
151335
151586
151833
152084
152351
152622
152883
153122
153376
153618
153874
154124
154366
154642
154913
155171
155414
155655
155894
156142
156398
156651
156902
157167
157413
157649
157888
158130
158380
158643
158905
159159
159423
159678
159920
160160
160410
160666
160935
161194
161451
161713
161966
162214
162456
162708
162967
163238
163500
163753
164007
164265
164514
164759
165018
165280
165551
165814
166065
166316
166575
166824
167070
167331
167595
167865
168126
168378
168626
168888
169143
169399
169667
169932
170202
170461
170715
170961
171222
171480
171741
172005
172267
172531
172789
173034
173276
173536
173799
174061
174316
174575
174825
175073
175312
175552
175809
176054
176338
176587
176843
177084
177333
177582
177828
178080
178353
178611
178860
179103
179343
179589
179839
180085
180333
180597
180866
181122
181361
181607
181855
182112
182368
182627
182900
183172
183430
183670
183670
183928
184181
184456
184721
184985
185260
185527
185778
186026
186280
186537
186810
187076
187337
187605
187863
188113
188360
188617
188883
189161
189425
189682
189942
190197
190400
190400
190690
190948
191224
191498
191758
192008
192268
192518
192766
193017
193278
193547
193816
194068
194309
194563
194813
195062
195316
195581
195847
196115
196365
196607
196856
197113
197370
197623
197890
198152
198414
198663
198907
199163
199428
199695
199959
200228
200495
200758
201006
201256
201516
201785
202055
202319
202587
202844
203105
203357
203610
203876
204155
204427
204693
204957
205211
205472
205729
205985
206258
206541
206811
207068
207328
207583
207841
208098
208362
208634
208912
209175
209422
209674
209923
210180
210438
210701
210968
211238
211495
211740
211987
212234
212499
212765
213026
213289
213559
213810
214053
214305
214557
214829
215099
215362
215626
215895
216146
216391
216637
216637
216907
217179
217452
217713
217971
218234
218486
218732
218992
219259
219532
220054
220307
220571
220823
221076
221338
221606
221879
222138
222385
222638
222897
223151
223406
223674
223939
224210
224465
224710
224965
225227
225488
225749
226021
226288
226554
226804
227049
227306
227570
227837
228100
228369
228635
228895
229143
229391
229653
229923
230194
230455
230719
230979
231239
231486
231732
232002
232273
232538
232799
233055
233307
233562
233808
234055
234322
234596
234861
234861
235112
235365
235617
235871
236126
236386
236655
236934
237200
237451
237704
237955
238214
238477
238743
239013
239289
239551
239796
240046
240298
240564
240830
241098
241367
241637
241891
242137
242391
242645
242918
243188
243453
243718
243985
244237
244484
244743
245005
245283
245546
245546
245819
246076
246345
246601
246849
247114
247383
247659
247923
248178
248434
248695
248951
249203
249471
249740
250012
250272
250521
250781
251040
251300
251563
251834
252109
252380
252632
252875
253134
253392
253653
253916
254183
254450
254715
254965
255207
255468
255732
255996
256257
256523
256786
257044
257295
257541
257808
258077
258343
258608
258870
259131
259386
259636
259888
260162
260432
260696
260961
261214
261470
261725
261976
262232
262508
262777
263032
263289
263538
263793
264051
264307
264568
264851
265120
265375
265627
265877
266133
266392
266655
266922
267200
267463
267716
267964
268214
268476
268743
269011
269273
269546
269801
270048
270294
270543
270805
271080
271344
271601
271867
272120
272367
272610
272864
273125
273396
273659
273911
274170
274425
274672
274918
275178
275440
275708
275969
276222
276470
276726
276975
277223
277486
277752
278024
278286
278539
278790
279053
279311
279567
279837
280105
280379
280636
280884
281140
281403
281665
281928
282199
282463
282728
282981
283227
283487
283754
284022
284285
284556
284817
285074
285324
285570
285829
286100
286369
286631
286894
287152
287409
287658
287907
288175
288449
288717
288977
289233
289489
289747
289997
290247
290522
290793
291055
291315
291567
291822
292081
292338
292596
292873
293143
293400
293654
293904
294159
294419
294681
294944
295220
295488
295740
295987
296238
296497
296762
297025
297289
297567
297827
298076
298325
298577
298839
299110
299377
299641
299913
300167
300412
300661
300913
301178
301452
301718
301974
302236
302489
302738
302987
303247
303519
303795
304060
304313
304826
305080
305336
305605
305880
306152
306415
306665
306924
307180
307439
307702
307974
308247
308519
308772
309019
309277
309536
309799
310066
310334
310601
310865
311114
311360
311618
311883
312147
312409
312676
312933
313192
313437
313681
313943
314214
314481
314743
315005
315263
315518
315767
316017
316288
316558
316826
317089
317346
317603
317863
318117
318374
318653
318923
319187
319447
319696
319953
320213
320469
320730
321010
321276
321530
321781
322030
322285
322544
322804
323067
323344
323606
323852
324100
324346
324603
324861
325125
325388
325661
325919
326165
326415
326662
326925
327192
327457
327718
327987
328238
328480
328727
328974
329237
329508
329769
330025
330286
330542
330782
331033
331287
331551
331819
332082
332331
332585
332832
333077
333323
333581
333847
334117
334376
334626
334876
335127
335377
335625
335625
335891
336153
336424
336677
336923
337171
337430
337682
337935
338201
338464
338730
338984
339231
339481
339744
340004
340263
340534
340797
341059
341314
341562
341812
342082
342350
342611
342879
343139
343397
343651
343902
344155
344432
344704
344966
345228
345480
345741
345993
346246
346507
346789
347059
347319
347576
347824
348080
348331
348586
348852
349131
349396
349648
349902
350150
350405
350663
350926
351194
351472
351736
351985
352237
352489
352749
353011
353277
353547
353820
354078
354323
354576
354834
355101
355365
355626
355899
356160
356408
356653
356905
357162
357436
357703
357965
358237
358498
358749
359001
359261
359532
359812
360082
360342
360607
360864
361114
361367
361630
361906
362182
362447
362702
362968
363221
363472
363732
363998
364271
364540
364796
365045
365304
365554
365804
366069
366333
366601
366868
367120
367363
367620
367874
368131
368393
368660
368926
369189
369437
369683
369941
370207
370474
370734
370976
371266
371521
371770
372017
372277
372546
372815
373074
373338
373592
373847
374077
374343
374606
374881
375149
375408
375665
375912
376165
376416
376668
376936
377213
377478
377730
377983
378230
378484
378738
378996
379266
379543
379803
380050
380301
380551
380808
381068
381325
381325
381607
381882
382144
382392
382643
382899
383164
383427
383691
383959
384224
384475
384721
384972
385226
385500
385766
386026
386292
386548
386796
387037
387290
387551
387821
388085
388342
388604
388859
389107
389354
389614
389884
390160
390424
390677
390936
391189
391440
391692
391956
391956
392225
392497
392757
393003
393259
393514
393765
394019
394286
394554
394554
394828
395078
395325
395582
395839
396093
396353
396619
396886
397151
397403
397648
397904
398166
398437
398695
398961
399228
399487
399736
399982
400239
400504
400773
401036
401300
401558
401817
402066
402315
402576
402849
403117
403376
403634
403882
404136
404385
404637
404900
405179
405442
405698
405952
406197
406452
406706
406964
407227
407505
407770
408003
408003
408271
408517
408778
409039
409307
409572
409851
410114
410360
410610
410860
411123
411654
411921
412199
412453
412697
412948
413199
413464
413732
413994
414258
414525
414771
415013
415263
415514
415780
416049
416311
416566
416827
417075
417318
417568
417826
418096
418363
418622
418873
419130
419378
419622
419874
420135
420670
420928
421184
421444
421694
421943
422209
422471
422743
423004
423254
423501
423760
424012
424266
424533
424797
425065
425323
425572
425817
426080
426340
426598
426864
427128
427392
427643
427889
428140
428406
428669
428930
429195
429455
429715
429962
430208
430459
430730
430993
431252
431514
431765
432018
432271
432520
432770
433045
433313
433571
433831
434081
434336
434595
434848
435102
435379
435650
435909
436160
436412
436665
436923
437181
437440
437713
437980
438238
438484
438735
438990
439253
439514
439777
440049
440314
440568
440815
441067
441324
441594
441860
442120
442389
442649
442897
443138
443391
443649
443919
444180
444437
444704
444962
445210
445455
445714
445982
446256
446519
446775
447034
447287
447536
447784
448043
448316
448591
448852
449102
449361
449614
449866
450122
450385
450654
450928
451184
451427
451684
451935
452188
452450
452718
452991
453258
453512
453757
454018
454274
454530
454796
455062
455332
455589
455837
456084
456344
456603
456865
457130
457390
457654
457908
458154
458399
458664
458927
459187
459451
459709
459965
460218
460464
460712
460984
461252
461510
461772
462027
462280
462533
462783
463032
463304
463571
463831
464086
464336
464587
464842
465093
465347
465617
465886
466148
466394
466640
466888
467143
467395
467650
467917
468189
468445
468688
468936
469184
469441
469703
469966
470234
470507
470760
471004
471256
471506
471770
472037
472303
472566
472836
473088
473332
473584
473840
474075
474379
474643
474901
475166
475417
475659
475912
476171
476445
476711
476969
477223
477482
477729
477975
478232
478493
478764
479030
479282
479531
479791
480043
480292
480556
480820
481090
481352
481603
481848
482108
482360
482613
482878
483141
483409
483663
483910
484157
484417
484675
484931
485194
485457
485719
485968
486211
486459
486723
486982
487238
487502
487759
488017
488268
488513
488762
489031
489296
489554
489817
490071
490325
490574
490822
491072
491347
491615
491873
492130
492381
492636
492884
493133
493389
493666
493929
494184
494437
494681
494933
495187
495440
495699
495974
496237
496490
496741
496988
497239
497501
497761
498020
498292
498555
498807
499052
499300
499554
499820
500085
500344
500613
500877
501127
501366
501617
501874
502138
502400
502660
502923
503178
503424
503666
503917
504175
504446
504710
504971
505229
505489
505737
505982
506240
506500
506775
507043
507297
507548
507810
508063
508308
508574
508838
509108
509371
509622
509872
510134
510387
510639
510905
511144
511441
511695
511948
512199
512462
512721
512982
513249
513513
513778
514028
514273
514525
514787
515046
515307
515572
515831
516091
516339
516582
516835
517101
517366
517622
517887
518143
518396
518642
518886
519140
519410
519676
519933
520192
520445
520697
520943
521192
521453
521726
521993
522253
522510
522757
523010
523261
523512
523775
524048
524313
524313
524562
524810
525052
525304
525553
525803
526063
526334
526589
526828
527070
527311
527558
527808
528065
528318
528584
528841
529083
529322
529560
529804
530050
530299
530547
530796
531048
531277
531502
531716
531933
532153
532380
532620
532866
533105
533355
533582
533813
534040
534277
534518
534767
535011
535252
535488
535734
535966
536197
536439
536690
536953
537217
537465
537704
537948
538194
538436
538678
538936
539194
539454
539703
539946
540191
540449
540703
540958
541227
541494
541769
542025
542276
542537
542805
543071
543340
543612
543884
544154
544410
544661
544930
545163
545474
545743
546012
546273
546531
546780
547026
547289
547555
547816
548081
548338
548596
548853
549106
549360
549636
549910
550176
550441
550693
550954
551211
551467
551735
552021
552294
552556
552819
553074
553335
553593
553856
554132
554413
554684
554941
555201
555462
555730
555996
556267
556552
556831
557091
557347
557605
557873
558143
558411
558683
558968
559230
559482
559735
559990
560259
560528
560798
561065
561338
561590
561835
562088
562342
562610
562882
563150
563408
563675
563927
564171
564425
564679
564947
565211
565464
565710
565952
566184
566418
566640
566891
567139
567397
567627
567871
568098
568345
568442
568572
568809
569046
569299
569544
569795
570030
570254
570484
570722
570957
571190
571439
571680
571928
572172
572400
572624
572862
573110
573360
573607
573863
574116
574368
574616
574860
575108
575379
575645
575905
576170
576431
576689
576938
577189
577449
577725
577997
578262
578527
578783
579043
579297
579550
579821
580099
580374
580626
580881
581134
581392
581642
581893
582164
582438
582699
582951
583202
583454
583703
583968
584225
584509
584779
585040
585293
585548
585810
586076
586342
586613
586893
587160
587412
587665
587915
588178
588444
588711
588977
589257
589517
589763
590016
590268
590536
590810
591079
591352
591628
591889
592141
592405
592675
592957
593232
593504
593777
594041
594301
594558
594826
595107
595393
595667
595929
596202
596454
596707
596974
597243
597525
597802
598065
598319
598586
598842
599096
599366
599635
599910
600179
600436
600689
600960
601223
601486
601762
602033
602305
602563
602815
603070
603337
603584
603872
604140
604413
604678
604931
605183
605445
605721
605994
606261
606532
606796
607060
607309
607557
607833
608045
608380
608648
608916
609178
609440
609696
609958
610246
610521
610787
611053
611314
611580
611843
612109
612385
612669
612941
613201
613456
613714
613980
614243
614512
614798
615075
615340
615600
615858
616126
616399
616674
616950
617240
617507
617761
618022
618283
618553
618826
619097
619374
619646
619903
620153
620409
620675
620950
621222
621488
621765
622027
622280
622537
622799
623077
623358
623629
623899
624171
624427
624677
624940
625206
625486
625759
626025
626290
626557
626816
627072
627345
627623
627905
628178
628437
628700
628966
629228
629494
629771
630053
630335
630598
630854
631122
631390
631624
631935
632210
632491
632754
633009
633261
633531
633795
634061
634334
634600
634868
635126
635380
635641
635919
636193
636464
636740
637005
637269
637528
637783
638055
638338
638615
638883
639153
639419
639686
639947
640211
640493
640761
641016
641263
641502
641744
641981
642224
642465
642731
642988
643239
643481
643719
643956
644201
644451
644698
644960
645226
645480
645719
645962
646204
646457
646715
646979
647248
647525
647788
648038
648294
648556
648819
649105
649375
649661
649928
