peak_index
803
1428
1738
2039
2343
2639
2960
3277
3578
3886
4194
4493
4785
5100
5418
5724
6043
6342
6637
6933
7260
7577
7883
8194
8498
8801
9103
9422
9732
10040
10361
10669
10969
11274
11603
11934
12252
12572
12887
13195
13512
13844
14167
14479
14798
15101
15402
15716
16033
16359
16662
16972
17272
17565
17886
18208
18516
18821
19142
19449
19749
20070
20394
20719
21032
21346
21652
21952
22284
22615
22941
23253
23566
23875
24182
24501
24828
25137
25453
25765
26065
26368
26694
27030
27354
27673
27982
28299
28620
28954
29282
29588
29902
30213
30523
30834
31157
31495
31812
32129
32439
32742
33071
33403
33725
34029
34335
34647
34951
35276
35603
35925
36241
36559
36867
37169
37496
37824
38135
38434
38733
39035
39335
39666
39985
40296
40615
40930
41242
41550
41874
42203
42522
42842
43141
43442
43758
44087
44410
44714
45031
45342
45649
45967
46300
46630
46944
47256
47561
47860
48186
48516
48846
49148
49454
49762
50066
50389
50696
51015
51320
51631
51939
52236
52554
52886
53208
53520
53820
54103
54429
54758
55079
55391
55701
56012
56316
56604
56920
57236
57551
57866
58170
58469
58771
59096
59415
59721
60034
60336
60640
60938
61251
61566
61874
62188
62488
62780
63072
63387
63707
64022
64320
64618
64917
65216
65532
65843
66152
66451
66753
67045
67329
67407
67629
67935
68237
68524
68810
69092
69370
69664
69976
70283
70577
70880
71165
71465
71752
72063
72373
72675
72981
73282
73577
73863
74179
74488
74792
75081
75382
75670
75957
76270
76583
76890
77190
77489
77776
78059
78367
78678
78988
79291
79598
79895
80197
80513
80829
81142
81448
81756
82060
82362
82669
82991
83317
83634
83951
84258
84560
84887
85219
85539
85846
86143
86466
86768
87091
87239
87412
87737
88040
88351
88652
88950
89251
89592
89909
90211
90516
90815
91112
91416
91749
92062
92363
92678
92977
93270
93589
93907
94219
94526
94829
95122
95412
95731
96050
96361
96667
96963
97266
97563
97882
98201
98521
98828
99135
99416
99720
100033
100363
100683
100987
101290
101599
101900
102221
102542
102864
103148
103473
103773
104066
104385
104710
105018
105317
105620
105919
106215
106536
106855
107171
107482
107803
108109
108405
108724
109045
109363
109670
109972
110267
110560
110884
111207
111520
111825
112130
112436
112746
113063
113378
113704
114021
114333
114629
114931
115259
115584
115890
116204
116508
116815
117107
117426
117743
118050
118363
118671
118969
119268
119587
119911
120219
120531
120834
121129
121422
121747
122065
122369
122678
122987
123294
123570
123898
124219
124524
124836
125138
125429
125719
126047
126370
126682
126981
127290
127593
127894
128218
128538
128847
129168
129475
129773
130070
130396
130718
131031
131347
131653
131961
132274
132601
132921
133231
133541
133846
134153
134456
134774
135099
135407
135717
136012
136313
136619
136949
137280
137590
137904
138212
138509
138812
139130
139454
139756
140067
140366
140663
140968
141291
141602
141904
142211
142514
142817
143123
143447
143768
144079
144398
144702
145006
145320
145645
145977
146292
146594
146891
147192
147514
147840
148157
148464
148775
149075
149368
149689
150011
150344
150655
150961
151268
151572
151897
152228
152548
152856
153169
153481
153783
154100
154423
154746
155061
155367
155670
155970
156294
156617
156931
157236
157538
157844
158152
158482
158806
159118
159445
159759
160063
160369
160699
161022
161333
161645
161940
162238
162542
162862
163187
163495
163810
164116
164422
164730
165057
165375
165683
165993
166298
166601
166914
167237
167566
167876
168185
168487
168797
169112
169409
169743
170053
170364
170669
170965
171279
171596
171924
172226
172528
172824
173117
173430
173754
174072
174373
174683
174989
175286
175594
175913
176234
176543
176858
177155
177440
177759
178082
178378
178686
178989
179284
179581
179886
180199
180516
180827
181140
181437
181732
182045
182369
182695
183007
183311
183613
183924
184241
184561
184881
185187
185496
185802
186095
186379
186718
187043
187341
187633
187919
188208
188503
188819
189124
189417
189723
190023
190323
190597
190946
191268
191577
191877
192206
192511
192807
193156
193485
193789
194082
194397
194707
195026
195331
195679
195995
196311
196618
196914
197237
197563
197884
198185
198485
198779
199071
199382
199692
199983
200295
200597
200890
201181
201485
201795
202104
202400
202699
202986
203281
203573
203873
204200
204495
204798
205097
205393
205680
205986
206298
206602
206909
207215
207513
207803
208113
208427
208733
209030
209329
209626
209907
210234
210542
210854
211151
211453
211747
212034
212347
212665
212960
213273
213574
213853
214153
214464
214779
215094
215388
215689
215989
216272
216566
216889
217200
217503
217803
218095
218370
218673
218983
219293
219589
219890
220167
220467
220749
221056
221350
221667
221957
222260
222555
222842
223148
223465
223774
224067
224361
224660
224948
225255
225574
225890
226189
226500
226804
227106
227421
227741
228060
228366
228685
228988
229286
229611
229943
230257
230561
230874
231182
231467
231798
232118
232427
232728
233050
233330
233640
233962
234292
234615
234925
235133
235509
235815
236144
236466
236770
237089
237402
237702
238000
238309
238651
238975
239286
239582
239895
240197
240529
240851
241167
241480
241779
242092
242385
242702
243016
243337
243638
243953
244256
244558
244889
245193
245516
245835
246142
246446
246752
247074
247390
247696
248022
248331
248625
248925
249249
249579
249896
250209
250497
250809
251112
251438
251752
252060
252371
252674
252976
253256
253581
253900
254214
254516
254830
255136
255442
255762
256075
256392
256689
257011
257313
257618
257938
258260
258572
258884
259183
259461
259753
260093
260410
260712
261020
261324
261614
261941
262264
262586
262907
263227
263536
263841
264162
264471
264818
265130
265437
265736
266022
266344
266660
266975
267278
267581
267867
268175
268480
268799
269128
269438
269750
270051
270353
270681
271015
271340
271646
271943
272256
272549
272864
273175
273485
273793
274107
274390
274698
275026
275354
275663
275954
276271
276571
276847
277177
277499
277811
278108
278422
278720
279012
279329
279647
279966
280268
280560
280860
281153
281477
281784
282113
282419
282731
283043
283329
283655
283976
284306
284601
284915
285213
285513
285835
286160
286465
286777
287083
287389
287681
287977
288300
288620
288926
289232
289532
289838
290163
290500
290829
291141
291459
291769
292082
292416
292745
293057
293380
293693
294005
294306
294635
294948
295272
295586
295892
296192
296506
296831
297154
297457
297752
298058
298359
298657
298974
299280
299584
299895
300196
300493
300789
301105
301424
301729
302036
302335
302637
302930
303245
303556
303860
304149
304460
304754
305043
305338
305671
305983
306285
306584
306884
307176
307497
307808
308121
308427
308721
309034
309330
309630
309964
310288
310603
310906
311201
311481
311817
312134
312440
312724
313038
313335
313629
313938
314247
314552
314852
315156
315447
315736
316047
316353
316689
316972
317287
317584
317868
318184
318490
318800
319094
319383
319667
319965
320253
320566
320883
321183
321463
321775
322071
322362
322679
322974
323287
323583
323885
324154
324444
324750
325058
325362
325656
325942
326222
326526
326840
327157
327470
327755
328064
328357
328657
328964
329276
329589
329903
330212
330507
330800
331104
331406
331714
332026
332328
332618
332915
333210
333527
333839
334148
334457
334766
335076
335376
335697
336024
336339
336654
336962
337273
337580
337908
338235
338544
338853
339161
339462
339766
340087
340407
340701
341023
341305
341613
341895
342236
342553
342855
343161
343465
343743
344050
344384
344703
345010
345326
345615
345925
346227
346527
346835
347140
347454
347746
348041
348342
348653
348954
349250
349553
349846
350140
350424
350730
351039
351354
351651
351949
352243
352530
352852
353177
353491
353791
354097
354401
354698
355016
355337
355647
355954
356262
356564
356857
357181
357506
357827
358133
358441
358738
359034
359349
359661
359969
360272
360572
360863
361144
361455
361766
362081
362381
362686
362986
363282
363593
363909
364225
364528
364833
365132
365428
365719
366054
366383
366688
366995
367296
367596
367918
368248
368573
368880
369194
369506
369807
370127
370454
370771
371084
371393
371693
371990
372315
372638
372957
373267
373577
373882
374180
374505
374831
375146
375464
375776
376078
376370
376691
377010
377323
377635
377938
378236
378539
378862
379184
379492
379812
380118
380420
380723
381048
381370
381691
382003
382309
382614
382920
383247
383573
383880
384193
384500
384810
385123
385448
385778
386085
386403
386717
387026
387344
387668
387993
388308
388610
388914
389214
389537
389859
390175
390477
390788
391090
391383
391701
392024
392348
392660
392969
393269
393573
393904
394229
394550
394867
395183
395497
395807
396131
396454
396781
397106
397416
397727
398034
398364
398685
398993
399302
399603
399911
400223
400549
400875
401181
401501
401818
402128
402445
402785
403117
403431
403747
404052
404358
404690
405017
405342
405655
405975
406279
406573
406898
407221
407542
407854
408165
408466
408776
409105
409433
409748
410071
410382
410693
411003
411331
411650
411968
412285
412589
412887
413196
413526
413857
414166
414482
414791
415100
415408
415723
416046
416350
416665
416975
417274
417583
417908
418234
418540
418846
419151
419447
419772
420108
420439
420754
421077
421402
421718
422051
422387
422704
423025
423335
423639
423943
424273
424599
424907
425223
425533
425840
426152
426481
426815
427132
427457
427770
428075
428407
428745
429080
429407
429729
430052
430695
431028
431351
431681
432002
432320
432638
432969
433309
433625
433942
434251
434557
434876
435206
435531
435839
436157
436466
436768
437090
437420
437748
438062
438371
438676
438976
439304
439631
439948
440255
440571
440882
441195
441523
441848
442167
442492
442802
443104
443408
443738
444070
444390
444714
445022
445336
445655
445976
446299
446607
446916
447216
447510
447817
448135
448464
448769
449070
449371
449667
449970
450289
450602
450899
451204
451505
451802
452104
452424
452742
453058
453379
453686
453984
454303
454636
454955
455260
455574
455874
456174
456487
456806
457125
457435
457742
458043
458331
458645
458959
459276
459572
459867
460154
460447
460748
461060
461369
461666
461962
462260
462558
462851
463162
463474
463779
464080
464365
464648
464928
465235
465546
465847
466142
466444
466746
467036
467348
467663
467981
468285
468589
468883
469167
469479
469801
470114
470408
470711
471004
471292
471603
471914
472223
472522
472828
473120
473411
473710
474021
474333
474631
474927
475197
475499
475792
476099
476403
476702
477000
477293
477586
477871
478178
478491
478805
479103
479407
479705
480003
480327
480649
480962
481266
481574
481881
482176
482483
482799
483109
483409
483713
484006
484295
484612
484936
485256
485554
485860
486149
486442
486760
487074
487382
487684
487990
488286
488575
488886
489198
489513
489809
490097
490378
490649
490949
491247
491536
491819
492106
492389
492666
492935
493229
493519
493817
494100
494391
494669
494955
495240
495554
495869
496242
496465
496759
497048
497310
497617
497913
498206
498485
498768
499038
499297
499311
499386
499590
499751
499887
500174
500460
500739
501020
501295
501569
501866
502158
502446
502721
503011
503290
503566
503833
504128
504418
504713
504997
505279
505555
505830
506124
506421
506716
506995
507285
507563
507841
508114
508402
508691
508986
509268
509550
509822
510097
510378
510679
510978
511269
511559
511839
512125
512402
512702
512995
513296
513578
513871
514160
514442
514729
515036
515343
515636
515928
516222
516510
516801
517120
517429
517732
518035
518335
518626
518910
519218
519521
519832
520136
520431
520719
521001
521309
521611
521901
522184
522473
522754
523036
523314
523609
523904
524205
524499
524791
525075
525357
525654
525963
526272
526562
526850
527149
527444
527745
528062
528381
528681
528992
529293
529587
529881
530199
530517
530817
531112
531405
531700
532004
532322
532636
532935
533244
533545
533841
534134
534449
534739
535056
535365
535661
535949
536237
536541
536847
537150
537446
537734
538029
538325
538640
538958
539278
539589
539899
540199
540497
540811
541136
541456
541763
542069
542380
542679
543002
543323
543641
543946
544254
544549
544841
545157
545483
545797
546102
546405
546695
546985
547307
547625
547938
548237
548544
548841
549132
549446
549766
550071
550371
550677
550972
551264
551590
551912
552231
552536
552850
553147
553433
553745
554059
554369
554676
554978
555261
555545
555849
556155
556459
556750
557044
557330
557622
557915
558219
558524
558826
559132
559433
559728
560023
560339
560658
560962
561266
561562
561850
562134
562451
562762
563067
563358
563660
563953
564242
564549
564865
565177
565475
565771
566055
566335
566643
566952
567262
567555
567855
568144
568442
568735
569045
569356
569658
569965
570262
570553
570848
571159
571473
571774
572083
572383
572685
572978
573290
573599
573903
574194
574490
574783
575069
575379
575700
576010
576306
576605
576902
577190
577503
577819
578131
578429
578737
579033
579320
579629
579948
580267
580570
580875
581172
581463
581776
582092
582401
582695
582999
583293
583583
583882
584193
584503
584807
585110
585393
585685
585763
585968
586265
586570
586870
587165
587444
587728
588010
588309
588606
588903
589184
589471
589753
590025
590303
590599
590898
591194
591484
591767
592050
592327
592626
592932
593232
593516
593807
594096
594376
594662
594963
595267
595552
595850
596140
596413
596709
597024
597338
597648
597946
598244
598536
598826
599144
599464
599776
600079
600376
600675
600963
601271
601584
601900
602198
602497
602783
603076
603392
603706
604022
604323
604626
604924
605212
605518
605828
606148
606448
606750
607043
607338
607647
607975
608287
608587
608899
609206
609501
609801
610122
610439
610748
611052
611343
611638
611947
612268
612590
612889
613195
613487
613785
614085
614396
614702
615000
615304
615602
615895
616189
616508
616829
617134
617443
617739
618040
618334
618651
618961
619267
619562
619858
620152
620439
620742
621053
621356
621648
621930
622214
622495
622786
623094
623394
623674
623966
624252
624532
624800
625089
625364
625646
625934
626192
626472
626737
627005
627297
627578
627861
628136
628416
628689
628964
629252
629538
629822
630097
630384
630651
630917
631176
631461
631744
632012
632312
632590
632859
633112
633401
633686
633970
634231
634514
634767
635049
635318
635558
635853
636121
636428
636703
636985
637258
637539
637801
638099
638398
638708
638993
639266
639571
639830
640144
640445
640749
641037
641314
641591
641898
642181
642486
642785
643068
643357
643640
643899
644189
644486
644781
645053
645332
645651
645938
646215
646489
646808
647116
647412
647708
647994
648279
648565
648857
649148
649441
649724
