peak_index
732
1971
2068
2363
2748
3171
3574
3967
4357
4733
5145
5553
5943
6333
6716
7097
7512
7910
8301
8683
9067
9480
9902
10301
10703
11114
11521
11952
12367
12761
13161
13555
13962
14383
14773
15162
15545
15963
16368
16772
17155
17538
17935
18330
18730
19121
19484
19849
20250
20638
21030
21405
21776
22146
22552
22943
23337
23710
24081
24476
24876
25263
25654
26025
26383
26787
27175
27556
27939
28302
28672
29071
29461
29841
30217
30574
30794
31354
31736
32128
32499
32860
33254
33655
34027
34410
34787
35154
35556
35956
36339
36726
37095
37496
37899
38292
38682
39071
39449
39856
40260
40655
41033
41420
41829
42233
42635
43025
43420
43819
44227
44650
45052
45430
45635
46206
46635
47031
47411
47805
48194
48609
48991
49385
49766
50139
50550
50945
51333
51729
52103
52503
52906
53311
53704
54095
54465
54879
55284
55667
56061
56439
56833
57229
57617
57996
58383
58743
59150
59551
59934
60318
60702
61083
61495
61896
62284
62674
63053
63457
63872
64264
64648
65049
65435
65850
66258
66640
67034
67409
67816
68230
68626
69001
69385
69589
70163
70562
70941
71317
71673
72078
72465
72860
73236
73615
73993
74402
74816
75206
75596
75969
76396
76802
77203
77603
77983
78373
78786
79195
79583
79956
80328
80540
81119
81501
81884
82250
82614
83008
83396
83778
84150
84516
84887
85124
85290
85673
86051
86435
86801
87122
87605
88013
88409
88787
88943
89369
89916
90306
90719
90912
91486
91895
92291
92680
92952
93437
93862
94281
94666
94861
95424
95831
96242
96635
97034
97412
97786
98211
98598
98989
99369
99759
100151
100516
100953
101354
101727
102134
102529
102944
103346
103659
104083
104545
104948
105343
105506
106081
106081
106490
106911
107304
107494
108054
108424
108853
109248
109435
109435
109964
110352
110712
111096
111477
111477
111843
112224
112583
112938
113318
113705
114078
114453
114806
115187
115607
115961
116342
116722
117088
117479
117874
118252
118636
119026
119393
119811
120197
120575
120956
121325
121713
122084
122271
122824
123196
123561
123926
124316
124688
125041
125402
125763
126145
126536
126910
127276
127646
128023
128409
128804
129179
129538
129909
130295
130689
131004
131461
131834
132193
132593
132950
133362
133737
133952
134482
134887
135271
135655
136044
136386
136781
137181
137559
137958
138333
138708
139112
139515
139899
140302
140595
141052
141463
141867
142251
142618
142995
143383
143805
144175
144577
144968
145345
145547
146142
146534
146931
147299
147511
148108
148502
148885
149280
149524
150047
150461
150836
151214
151582
151969
152362
152749
153118
153500
153872
154264
154664
154987
155418
155804
156166
156564
156951
157334
157707
158085
158499
158892
159291
159672
160053
160245
160853
161266
161675
162064
162460
162884
163304
163711
164112
164335
164929
165354
165755
166158
166547
166940
167370
167766
168163
168565
168905
169366
169776
170167
170556
170934
170934
171208
171742
172130
172521
172899
173276
173676
174088
174470
174851
175244
175640
176054
176460
176857
177063
177638
178066
178488
178876
179083
179642
180060
180467
180841
181235
181610
181998
182392
182798
183175
183452
183908
184311
184708
185096
185314
185846
186048
186599
186995
187372
187740
188104
188469
188866
189270
189659
190037
190385
190792
191196
191585
191980
192357
192724
193139
193360
193922
194309
194673
195063
195469
195844
196248
196634
197004
197421
197831
198220
198619
198998
199395
199808
200171
200587
200978
201350
201759
202158
202544
202920
203150
203676
204091
204486
204871
205062
205600
206003
206275
206423
206767
207125
207487
207847
208213
208590
208952
209310
209662
210009
210376
210728
211092
211441
211784
212131
212502
212873
213226
213592
213911
214262
214620
214980
215332
215686
216024
216359
216717
217065
217410
217741
218076
218400
218742
219089
219429
219758
220095
220421
220735
221095
221441
221775
222116
222446
222764
223112
223469
223810
224135
224467
224798
225111
225473
225812
226136
226466
226761
227094
227422
227771
228110
228426
228750
229077
229391
229728
230080
230407
230737
231062
231391
231729
232074
232428
232761
233089
233421
233758
234105
234463
234803
235147
235478
235810
236181
236547
236915
237267
237621
237956
238344
238711
239074
239433
239775
239855
240113
240113
240485
240849
241196
241551
241887
242215
242593
242954
243312
243667
244016
244355
244726
245112
245477
245851
246207
246554
246943
247331
247690
248073
248433
248782
248782
249164
249548
249906
250275
250627
250971
251347
251723
251981
252173
252343
252526
252798
252970
253293
253753
254131
254492
254854
255195
255565
255945
256313
256678
257042
257385
257776
258158
258537
258898
259249
259598
259975
260357
260728
261088
261457
261819
262203
262593
262972
263339
263631
264098
264491
264877
265249
265583
265971
266376
266743
267111
267489
267850
268217
268514
269005
269389
269770
270139
270523
270922
271137
271687
272060
272417
272808
273193
273569
273937
274299
274630
275008
275378
275737
276088
276429
276752
277118
277485
277819
278158
278499
278828
279161
279525
279879
280225
280561
280899
281224
281594
281953
282291
282639
282987
283320
283688
284067
284423
284778
285133
285471
285835
286214
286562
286920
287266
287603
287967
288342
288694
289038
289379
289713
290066
290431
290785
291136
291476
291821
292178
292537
292915
293264
293607
293959
294315
294682
295050
295409
295755
296099
296409
296839
297219
297587
297941
298300
298656
299048
299417
299783
300135
300486
300860
301249
301568
301995
302353
302704
303083
303472
303833
304212
304566
304914
305178
305675
306035
306405
306756
307097
307476
307856
308210
308578
308924
309254
309616
309988
310334
310695
311048
311373
311745
312123
312472
312830
313179
313518
313884
314265
314631
314991
315344
315679
316057
316426
316789
317145
317501
317840
318199
318567
318924
319267
319610
319941
320295
320665
321023
321363
321702
322044
322381
322743
323101
323448
323787
324117
324466
324821
325181
325518
325861
326201
326532
326902
327254
327593
327947
328278
328607
328987
329354
329708
330061
330410
330745
331126
331498
331852
332196
332537
332866
333215
333586
333938
334281
334629
334971
335306
335683
336037
336381
336725
337064
337396
337776
338135
338479
338826
339173
339505
339874
340243
340572
340915
341249
341568
341915
342275
342622
342953
343287
343631
343970
344343
344704
345042
345384
345727
346069
346425
346794
347134
347478
347821
348145
348507
348882
349232
349579
349921
350262
350633
350991
351347
351689
352029
352351
352710
353069
353421
353766
354092
354264
354763
355050
355448
355786
356002
356436
356750
357109
357448
357774
358111
358427
358746
359077
359436
359779
360106
360441
360767
361085
361438
361788
362120
362465
362799
363120
363469
363841
364197
364536
364884
365218
365558
365918
366274
366609
366953
367290
367613
367974
368345
368681
369026
369371
369692
370053
370410
370752
371086
371423
371744
372070
372419
372768
373090
373418
373747
374057
374405
374742
375074
375402
375729
376056
376393
376745
377100
377439
377775
378112
378440
378790
379153
379489
379821
380143
380473
380819
381169
381514
381851
382180
382512
382860
383208
383556
383898
384226
384557
384894
385245
385595
385922
386272
386601
386916
387286
387637
387986
388326
388664
388989
389333
389706
390052
390387
390729
391060
391384
391756
392100
392427
392757
393097
393413
393766
394133
394470
394807
395145
395482
395831
396209
396562
396894
397233
397569
397893
398245
398598
398923
399255
399580
399897
400243
400598
400940
401261
401585
401917
402240
402576
402925
403250
403579
403905
404231
404576
404933
405283
405616
405948
406277
406609
406955
407305
407629
407952
408276
408599
408949
409290
409630
409962
410288
410607
410951
411293
411633
411962
412281
412602
412918
413270
413617
413958
414300
414630
414949
415309
415672
416010
416356
416682
417005
417331
417696
418035
418364
418703
419028
419342
419695
420051
420382
420716
421047
421365
421700
422046
422395
422716
423055
423378
423688
424035
424385
424721
425052
425388
425714
426050
426411
426771
427105
427444
427780
428106
428458
428807
429144
429473
429811
430128
430470
430824
431168
431498
431825
432153
432483
432833
433176
433514
433839
434173
434498
434837
435207
435207
435373
435528
435528
435854
436170
436494
436815
437153
437494
437821
438139
438457
438772
439114
439462
439795
440134
440457
440792
441133
441479
441834
442170
442514
442849
443187
443549
443913
443913
444250
444595
444925
445238
445588
445928
446269
446590
446914
447233
447545
447896
448228
448548
448868
449181
449476
449794
450129
450446
450750
451050
451353
451636
451935
452278
452592
452892
453199
453502
453803
454116
454456
454791
455094
455405
455718
456013
456342
456682
457011
457321
457629
457944
458253
458579
458922
459251
459557
459866
460180
460492
460828
461165
461483
461800
462108
462418
462736
463060
463406
463720
464035
464349
464655
464984
465303
465633
465943
466243
466540
466845
467167
467482
467820
468123
468423
468729
469020
469352
469668
469996
470306
470600
470907
471202
471530
471862
472185
472497
472806
473115
473427
473767
474096
474427
474761
475066
475381
475716
476057
476396
476726
477044
477360
477663
478000
478341
478666
478986
479305
479612
479918
480259
480592
480906
481227
481547
481845
482155
482483
482815
483131
483445
483759
484058
484385
484713
485038
485345
485653
485965
486258
486580
486912
487244
487547
487851
488161
488458
488789
489117
489447
489759
490061
490376
490675
491004
491320
491652
491958
492261
492575
492876
493207
493535
493847
494165
494464
494771
495075
495402
495718
496041
496351
496643
496965
497277
497609
497934
498255
498565
498860
499168
499490
499807
500126
500431
500734
501035
501333
501654
501969
502281
502589
502900
503195
503491
503821
504139
504464
504769
505077
505382
505682
506011
506343
506667
506974
507291
507589
507885
508222
508541
508860
509168
509485
509785
510080
510435
510771
511095
511423
511743
512058
512369
512726
513064
513384
513713
514044
514347
514685
515041
515354
515668
515972
516283
516575
516893
517233
517540
517842
518143
518443
518755
519073
519391
519709
520026
520310
520623
520940
521263
521586
521905
522211
522514
522827
523128
523452
523786
524095
524405
524711
525019
525331
525656
525987
526299
526608
526917
527219
527552
527887
528230
528548
528856
529166
529465
529795
530107
530438
530747
531043
531349
531645
531972
532298
532619
532935
533231
533540
533834
534165
534498
534813
535134
535446
535750
536060
536407
536729
537055
537387
537691
538001
538326
538665
538995
539316
539644
539960
540266
540609
540953
541284
541614
541931
542247
542559
542892
543235
543551
543874
544195
544499
544823
545166
545504
545807
546131
546442
546728
547057
547385
547702
548000
548297
548603
548886
549203
549529
549851
550150
550454
550762
551059
551376
551705
552033
552344
552650
552972
553278
553605
553936
554265
554573
554874
555191
555486
555804
556130
556444
556750
557053
557360
557657
557978
558293
558605
558916
559204
559514
559809
560116
560432
560733
561043
561328
561627
561920
562223
562537
562837
563130
563420
563706
563990
564296
564592
564895
565192
565484
565775
566064
566365
566680
566992
567290
567597
567885
568174
568475
568797
569110
569418
569741
570042
570344
570658
570985
571299
571594
571895
572195
572481
572774
573109
573422
573720
574034
574338
574634
574933
575272
575531
575892
576223
576531
576833
577124
577458
577732
578069
578381
578671
578966
579247
579555
579874
580167
580379
580708
581002
581269
581569
581876
582173
582454
582743
583024
583024
583312
583600
583600
583919
584218
584511
584802
585093
585381
585671
585978
586289
586604
586893
587184
587479
587770
588072
588390
588707
589002
589305
589609
589911
590243
590571
590912
591233
591538
591856
592172
592501
592830
593153
593466
593774
594072
594385
594707
595019
595334
595641
595940
596250
596556
596887
597215
597534
597851
598143
598441
598753
599064
599375
599680
599972
600262
600550
600830
601152
601457
601763
602061
602360
602658
602942
603279
603610
603921
604246
604560
604860
605165
605520
605850
606153
606476
606785
607085
607396
607730
608067
608377
608700
609014
609304
609630
609964
610283
610603
610903
611201
611497
611819
612137
612465
612763
613067
613374
613664
613984
614309
614631
614925
615233
615538
615825
616136
616456
616786
617087
617394
617704
617985
618301
618625
618936
619236
619525
619826
620109
620403
620710
621028
621320
621610
621902
622195
622487
622809
623118
623426
623726
624019
624319
624607
624914
625223
625527
625825
626120
626414
626705
627016
627318
627629
627927
628213
628511
628793
629093
629410
629710
630005
630294
630576
630859
631156
631459
631764
632044
632345
632631
632908
633214
633518
633824
634132
634425
634723
635014
635292
635609
635920
636224
636519
636821
637118
637400
637652
638047
638379
638690
639011
639318
639611
639948
640267
640572
640859
641158
641443
641711
642011
642315
642610
642885
643154
643442
643718
643976
644279
644572
644858
645130
645401
645675
645948
646214
646510
646808
647085
647358
647630
647898
648151
648426
648715
648998
649266
649266
649529
649789
649789
