Results for: 116.dart
========================================
Total Peaks Detected: 2402
Heart Rate: 79.94 BPM
========================================
Peak indices (2402 peaks):
837, 1444, 1640, 1910, 2180, 2448, 2720, 2988, 3256, 3529, 3797, 4067, 4345, 4615, 4887, 5165, 5435, 5707, 5977, 6255, 6533, 6803, 7085, 7360, 7634, 7910, 8184, 8458, 8739, 9011, 9283, 9561, 9831, 10102, 10373, 10644, 10918, 11189, 11461, 11735, 12012, 12284, 12552, 12827, 13113, 13388, 13667, 13950, 14222, 14498, 14772, 15045, 15320, 15591, 15864, 16138, 16415, 16687, 16954, 17230, 17513, 17790, 18069, 18351, 18633, 18914, 19189, 19469, 19753, 20026, 20305, 20588, 20865, 21146, 21421, 21700, 21985, 22263, 22549, 22825, 23098, 23380, 23654, 23931, 24208, 24482, 24762, 25044, 25312, 25592, 25868, 26150, 26424, 26698, 26982, 27255, 27528, 27802, 28076, 28356, 28626, 28896, 29174, 29448, 29716, 29988, 30259, 30539, 30814, 31084, 31366, 31644, 31912, 32187, 32459, 32739, 33008, 33281, 33566, 33844, 34120, 34398, 34676, 34958, 35121, 35121, 35515, 35793, 35956, 35956, 36343, 36617, 36890, 37169, 37441, 37719, 37995, 38266, 38540, 38813, 39090, 39368, 39645, 39926, 40203, 40482, 40759, 41032, 41312, 41593, 41868, 42145, 42423, 42694, 42968, 43242, 43519, 43802, 44078, 44360, 44637, 44910, 45188, 45461, 45740, 46019, 46294, 46579, 46859, 47135, 47413, 47691, 47970, 48252, 48527, 48803, 49080, 49352, 49625, 49898, 50171, 50444, 50715, 50998, 51269, 51536, 51817, 52084, 52364, 52644, 52915, 53197, 53474, 53633, 53633, 54014, 54289, 54559, 54831, 55102, 55378, 55649, 55917, 56181, 56463, 56740, 56919, 56919, 57282, 57559, 57831, 58094, 58361, 58629, 58898, 59163, 59433, 59707, 59973, 60239, 60513, 60780, 61057, 61332, 61598, 61876, 62144, 62408, 62679, 62949, 63216, 63486, 63756, 64032, 64302, 64568, 64843, 65111, 65388, 65661, 65931, 66210, 66480, 66748, 67019, 67288, 67561, 67833, 68103, 68382, 68651, 68916, 69193, 69462, 69737, 70010, 70280, 70559, 70830, 71099, 71370, 71638, 71908, 72181, 72449, 72719, 72990, 73259, 73528, 73791, 74065, 74340, 74603, 74772, 75146, 75418, 75682, 75951, 76215, 76488, 76754, 77017, 77293, 77560, 77824, 78090, 78360, 78631, 78898, 79163, 79439, 79704, 79967, 80239, 80503, 80769, 81039, 81305, 81574, 81844, 82110, 82378, 82646, 82914, 83184, 83449, 83721, 83990, 84256, 84524, 84785, 85053, 85328, 85593, 85860, 86133, 86403, 86669, 86940, 87210, 87485, 87753, 88027, 88302, 88574, 88845, 89111, 89384, 89662, 89932, 90205, 90483, 90758, 91032, 91305, 91580, 91858, 92130, 92406, 92679, 92946, 93221, 93484, 93750, 94027, 94291, 94567, 94743, 94743, 95106, 95382, 95540, 95540, 95921, 96099, 96470, 96738, 97010, 97273, 97543, 97803, 98071, 98345, 98610, 98878, 99152, 99424, 99700, 99974, 100251, 100535, 100815, 101093, 101376, 101656, 101933, 102206, 102484, 102766, 103039, 103319, 103597, 103874, 104153, 104316, 104316, 104694, 104971, 105239, 105397, 105774, 106041, 106301, 106563, 106823, 107094, 107357, 107625, 107906, 108184, 108463, 108743, 109023, 109313, 109590, 109866, 110153, 110431, 110700, 110976, 111250, 111532, 111806, 112080, 112361, 112640, 112913, 113185, 113458, 113737, 114004, 114275, 114549, 114821, 115084, 115356, 115633, 115911, 116185, 116459, 116738, 117009, 117284, 117551, 117818, 118094, 118358, 118621, 118894, 119162, 119424, 119690, 119955, 120227, 120494, 120759, 121031, 121303, 121571, 121837, 122106, 122381, 122647, 122912, 123185, 123453, 123715, 123982, 124249, 124521, 124788, 125053, 125329, 125599, 125776, 126133, 126400, 126672, 126937, 127200, 127474, 127740, 128004, 128277, 128546, 128820, 129094, 129363, 129640, 129912, 130181, 130454, 130721, 130998, 131273, 131544, 131820, 132016, 132356, 132630, 132899, 133170, 133442, 133709, 133985, 134257, 134526, 134686, 135063, 135337, 135610, 135878, 136149, 136421, 136689, 136962, 137227, 137494, 137772, 138037, 138303, 138578, 138850, 139109, 139376, 139642, 139912, 140178, 140443, 140716, 140890, 141248, 141518, 141787, 142061, 142330, 142598, 142880, 143154, 143420, 143694, 143964, 144238, 144509, 144777, 145053, 145318, 145578, 145846, 146110, 146377, 146646, 146908, 147179, 147447, 147706, 147979, 148244, 148515, 148792, 148976, 149334, 149605, 149875, 150056, 150408, 150681, 150952, 151218, 151494, 151766, 152032, 152304, 152570, 152743, 153108, 153376, 153644, 153817, 154167, 154434, 154694, 154957, 155226, 155490, 155763, 156042, 156313, 156497, 156855, 157121, 157394, 157661, 157922, 158189, 158455, 158716, 158976, 159240, 159510, 159767, 160032, 160304, 160569, 160828, 161093, 161353, 161618, 161883, 162141, 162410, 162673, 162933, 163200, 163465, 163735, 164003, 164270, 164542, 164811, 164989, 165339, 165600, 165860, 166128, 166384, 166641, 166908, 167170, 167426, 167690, 167950, 168128, 168480, 168745, 169015, 169276, 169535, 169738, 169738, 170059, 170320, 170589, 170841, 171100, 171367, 171626, 171884, 172146, 172409, 172675, 172940, 173204, 173387, 173743, 174005, 174269, 174528, 174797, 175061, 175321, 175589, 175854, 176114, 176382, 176553, 176908, 177180, 177442, 177711, 177977, 178244, 178509, 178696, 179036, 179308, 179567, 179828, 180099, 180358, 180622, 180887, 181148, 181330, 181686, 181952, 182225, 182496, 182761, 183029, 183302, 183477, 183852, 184124, 184408, 184587, 184951, 185223, 185493, 185768, 186040, 186312, 186586, 186859, 187123, 187389, 187658, 187932, 188194, 188457, 188731, 188997, 189261, 189527, 189792, 190064, 190333, 190503, 190870, 191140, 191398, 191663, 191924, 192195, 192457, 192718, 192991, 193255, 193513, 193784, 194049, 194312, 194585, 194850, 195118, 195389, 195656, 195840, 196183, 196454, 196719, 196983, 197246, 197514, 197780, 198043, 198307, 198569, 198842, 199109, 199375, 199551, 199914, 200176, 200443, 200708, 200973, 201236, 201499, 201769, 202033, 202299, 202571, 202837, 203110, 203385, 203656, 203830, 204207, 204481, 204758, 205031, 205303, 205481, 205853, 206137, 206339, 206688, 206966, 207237, 207514, 207792, 208065, 208350, 208513, 208513, 208898, 209180, 209457, 209629, 210005, 210278, 210556, 210738, 211095, 211366, 211634, 211910, 212177, 212440, 212717, 212978, 213237, 213414, 213765, 214031, 214295, 214554, 214823, 215087, 215345, 215520, 215871, 216141, 216408, 216673, 216943, 217213, 217480, 217655, 218032, 218314, 218660, 218660, 219052, 219341, 219624, 219801, 220177, 220466, 220751, 220926, 221315, 221595, 221866, 222030, 222030, 222413, 222688, 222963, 223237, 223522, 223802, 224081, 224371, 224654, 224948, 225233, 225518, 225809, 226090, 226366, 226647, 226915, 227193, 227461, 227724, 228001, 228270, 228533, 228804, 229075, 229260, 229622, 229892, 230168, 230437, 230701, 230972, 231237, 231516, 231790, 232061, 232349, 232520, 232902, 233184, 233466, 233647, 234027, 234308, 234593, 234873, 235147, 235428, 235708, 236001, 236279, 236566, 236858, 237140, 237421, 237701, 237977, 238261, 238539, 238814, 239092, 239266, 239639, 239911, 240187, 240462, 240731, 241015, 241286, 241559, 241836, 242112, 242391, 242670, 242849, 243224, 243499, 243769, 244044, 244310, 244483, 244851, 245118, 245392, 245660, 245922, 246193, 246463, 246737, 247014, 247288, 247564, 247843, 248114, 248388, 248663, 248835, 249208, 249483, 249766, 250036, 250304, 250580, 250854, 251138, 251412, 251585, 251960, 252236, 252500, 252771, 253040, 253314, 253587, 253857, 254142, 254420, 254694, 254976, 255258, 255549, 255829, 256110, 256401, 256684, 256965, 257244, 257525, 257809, 258089, 258372, 258653, 258934, 259212, 259488, 259658, 260050, 260324, 260601, 260883, 261157, 261327, 261706, 261979, 262261, 262534, 262813, 262984, 263365, 263646, 263920, 264100, 264480, 264757, 265042, 265318, 265592, 265876, 266159, 266446, 266738, 267028, 267322, 267613, 267905, 268188, 268478, 268772, 269050, 269335, 269623, 269900, 270183, 270463, 270746, 271029, 271311, 271600, 271883, 272166, 272452, 272740, 273034, 273314, 273594, 273886, 274167, 274442, 274720, 274999, 275284, 275565, 275852, 276134, 276414, 276703, 276984, 277275, 277557, 277832, 278125, 278408, 278681, 278962, 279242, 279528, 279804, 280085, 280364, 280644, 280921, 281191, 281472, 281754, 282023, 282193, 282574, 282843, 283119, 283389, 283656, 283931, 284205, 284474, 284749, 285023, 285298, 285571, 285852, 286133, 286407, 286692, 286969, 287144, 287522, 287797, 288070, 288352, 288629, 288906, 289191, 289471, 289749, 290032, 290317, 290600, 290879, 291168, 291449, 291725, 292010, 292287, 292568, 292851, 293131, 293420, 293703, 293983, 294268, 294553, 294841, 295121, 295401, 295688, 295971, 296245, 296521, 296798, 297082, 297358, 297637, 297919, 298200, 298480, 298761, 298940, 299281, 299569, 299748, 300132, 300410, 300690, 300963, 301242, 301526, 301803, 302093, 302279, 302279, 302647, 302934, 303213, 303498, 303775, 304054, 304339, 304622, 304900, 305176, 305458, 305743, 306022, 306308, 306596, 306874, 307163, 307450, 307734, 308018, 308300, 308586, 308870, 309144, 309419, 309696, 309980, 310254, 310526, 310811, 311085, 311356, 311633, 311906, 312185, 312456, 312729, 313004, 313277, 313548, 313813, 314083, 314360, 314629, 314894, 315174, 315448, 315716, 315995, 316273, 316555, 316830, 317107, 317389, 317669, 317946, 318220, 318498, 318784, 319060, 319340, 319625, 319905, 320183, 320464, 320743, 321028, 321307, 321587, 321872, 322149, 322426, 322699, 322978, 323256, 323527, 323805, 324079, 324353, 324632, 324904, 325182, 325459, 325732, 326011, 326288, 326559, 326830, 327104, 327382, 327659, 327933, 328217, 328494, 328767, 329051, 329326, 329607, 329887, 330160, 330448, 330729, 331004, 331284, 331564, 331848, 332123, 332404, 332687, 332967, 333250, 333523, 333803, 334081, 334353, 334630, 334906, 335177, 335450, 335726, 336002, 336279, 336554, 336842, 337124, 337399, 337689, 337969, 338255, 338535, 338811, 339097, 339378, 339649, 339923, 340203, 340482, 340756, 341036, 341312, 341590, 341757, 342131, 342408, 342686, 342953, 343223, 343498, 343765, 343930, 343930, 344292, 344560, 344831, 345096, 345362, 345632, 345904, 346173, 346442, 346713, 346993, 347265, 347535, 347818, 348088, 348353, 348628, 348902, 349180, 349455, 349730, 350012, 350289, 350563, 350836, 351111, 351387, 351658, 351925, 352205, 352472, 352642, 353002, 353270, 353541, 353806, 354072, 354349, 354620, 354887, 355156, 355425, 355697, 355967, 356231, 356508, 356775, 357037, 357311, 357483, 357848, 358122, 358391, 358667, 358939, 359206, 359478, 359745, 360016, 360220, 360727, 360727, 360727, 361095, 361357, 361632, 361898, 362172, 362444, 362713, 362991, 363266, 363531, 363805, 364076, 364351, 364620, 364888, 365164, 365430, 365691, 365965, 366227, 366499, 366772, 367040, 367319, 367590, 367858, 368132, 368404, 368677, 368944, 369212, 369491, 369761, 370020, 370294, 370563, 370840, 371108, 371374, 371654, 371927, 372192, 372468, 372738, 373012, 373283, 373551, 373831, 374099, 374266, 374636, 374906, 375177, 375446, 375711, 375988, 376261, 376524, 376798, 377072, 377344, 377520, 377886, 378165, 378429, 378691, 378965, 379229, 379499, 379773, 380039, 380311, 380584, 380854, 381123, 381299, 381661, 381936, 382202, 382471, 382738, 383005, 383274, 383534, 383803, 384079, 384345, 384615, 384897, 385067, 385440, 385715, 385985, 386262, 386530, 386798, 387072, 387337, 387603, 387866, 388135, 388411, 388678, 388849, 389224, 389498, 389763, 390033, 390299, 390568, 390836, 391101, 391375, 391644, 391911, 392181, 392451, 392627, 392995, 393265, 393541, 393814, 394079, 394347, 394618, 394894, 395164, 395435, 395713, 395986, 396255, 396526, 396796, 397075, 397340, 397610, 397888, 398162, 398432, 398605, 398967, 399246, 399514, 399782, 400049, 400315, 400581, 400844, 401109, 401379, 401640, 401906, 402177, 402447, 402710, 402976, 403243, 403519, 403789, 404060, 404338, 404611, 404884, 405051, 405430, 405710, 405978, 406251, 406530, 406807, 407079, 407249, 407615, 407896, 408167, 408432, 408707, 408978, 409240, 409505, 409777, 409948, 410314, 410582, 410859, 411129, 411396, 411671, 411938, 412112, 412483, 412750, 413026, 413297, 413560, 413828, 414095, 414364, 414634, 414903, 415180, 415450, 415717, 415994, 416263, 416539, 416816, 417085, 417365, 417637, 417902, 418174, 418443, 418716, 418988, 419258, 419534, 419706, 420067, 420342, 420608, 420882, 421154, 421417, 421690, 421958, 422216, 422485, 422752, 423020, 423288, 423553, 423829, 424097, 424362, 424636, 424903, 425076, 425444, 425709, 425980, 426244, 426504, 426772, 427039, 427309, 427580, 427850, 428131, 428403, 428674, 428953, 429223, 429506, 429784, 429950, 430331, 430607, 430873, 431148, 431416, 431692, 431959, 432226, 432503, 432776, 433043, 433315, 433586, 433756, 434131, 434398, 434677, 434947, 435207, 435475, 435741, 436013, 436278, 436547, 436822, 436996, 437358, 437628, 437893, 438167, 438436, 438698, 438974, 439241, 439506, 439777, 440045, 440312, 440583, 440850, 441120, 441390, 441657, 441926, 442185, 442453, 442726, 442988, 443252, 443521, 443787, 444049, 444316, 444577, 444848, 445111, 445377, 445651, 445922, 446185, 446448, 446714, 446982, 447246, 447506, 447779, 448041, 448298, 448567, 448828, 449096, 449362, 449628, 449899, 450167, 450428, 450693, 450956, 451219, 451485, 451744, 452011, 452271, 452532, 452796, 453055, 453316, 453586, 453848, 454015, 454381, 454649, 454911, 455171, 455435, 455701, 455960, 456221, 456486, 456748, 457006, 457270, 457529, 457700, 458060, 458323, 458593, 458859, 459119, 459382, 459644, 459911, 460173, 460433, 460707, 460877, 461227, 461499, 461762, 462030, 462293, 462558, 462831, 462999, 463354, 463621, 463883, 464147, 464410, 464669, 464937, 465197, 465458, 465624, 465983, 466248, 466515, 466778, 467041, 467311, 467579, 467839, 468100, 468364, 468632, 468892, 469150, 469419, 469680, 469939, 470207, 470469, 470738, 471007, 471270, 471542, 471811, 472072, 472335, 472502, 472862, 473134, 473393, 473660, 473925, 474191, 474461, 474723, 474991, 475262, 475528, 475792, 476068, 476337, 476598, 476866, 477136, 477407, 477674, 477941, 478212, 478381, 478745, 479011, 479279, 479548, 479813, 480078, 480357, 480625, 480886, 481155, 481425, 481698, 481964, 482139, 482499, 482770, 483032, 483300, 483566, 483840, 484109, 484373, 484651, 484919, 485180, 485451, 485724, 485898, 486261, 486528, 486799, 487067, 487329, 487595, 491582, 491852, 492111, 492379, 492646, 492909, 493186, 493453, 493716, 493987, 494254, 494424, 494788, 495056, 495327, 495587, 495848, 496120, 496379, 496647, 496919, 497183, 497453, 497626, 497986, 498254, 498520, 498780, 499053, 499313, 499575, 499840, 500102, 500366, 500627, 500728, 503035, 503305, 503574, 503843, 504113, 504384, 504650, 504919, 505188, 505460, 505460, 505998, 506276, 506541, 506804, 507074, 507339, 507604, 507871, 508135, 508397, 508662, 508922, 509184, 509443, 509705, 509975, 510240, 510514, 510789, 511065, 511338, 511508, 511879, 512157, 512420, 512684, 512955, 513222, 513489, 513751, 514021, 514293, 514557, 514827, 515098, 515366, 515634, 515900, 516168, 516442, 516707, 516870, 517242, 517514, 517783, 518046, 518316, 518588, 518854, 519130, 519402, 519667, 519936, 520200, 520462, 520726, 520982, 521236, 521499, 521763, 522021, 522189, 522540, 522808, 523068, 523327, 523597, 523854, 524105, 524363, 524617, 524875, 525130, 525387, 525647, 525904, 526161, 526424, 526679, 526944, 527210, 527470, 527737, 527922, 528264, 528525, 528782, 529040, 529302, 529558, 529814, 530078, 530339, 530595, 530855, 531116, 531381, 531643, 531907, 532175, 532438, 532703, 532967, 533225, 533486, 533756, 534013, 534269, 534536, 534798, 535057, 535315, 535576, 535841, 536099, 536359, 536628, 536887, 537143, 537409, 537668, 537932, 538191, 538448, 538708, 538966, 539224, 539482, 539741, 540006, 540275, 540540, 540814, 541088, 541363, 541631, 541898, 542085, 542436, 542694, 542950, 543219, 543483, 543742, 544002, 544266, 544534, 544796, 545059, 545325, 545592, 545851, 546117, 546381, 546651, 546913, 547172, 547446, 547710, 547967, 548228, 548492, 548758, 549024, 549287, 549560, 549825, 550084, 550351, 550530, 550880, 551148, 551406, 551679, 551948, 552206, 552478, 552643, 553026, 553299, 553571, 553851, 554120, 554386, 554660, 554927, 555199, 555461, 555723, 555991, 556255, 556508, 556772, 557033, 557297, 557559, 557821, 558084, 558342, 558523, 558662, 558662, 559044, 559306, 559574, 559831, 560086, 560351, 560611, 560866, 561130, 561392, 561657, 561926, 562194, 562466, 562729, 562996, 563261, 563521, 563784, 563962, 564310, 564573, 564842, 565106, 565366, 565629, 565890, 566151, 566413, 566602, 566936, 567198, 567450, 567712, 567970, 568235, 568497, 568758, 569025, 569296, 569559, 569827, 570097, 570363, 570637, 570905, 571174, 571442, 571704, 571969, 572229, 572495, 572760, 573020, 573283, 573550, 573809, 574072, 574335, 574504, 574864, 575126, 575386, 575653, 575915, 576172, 576429, 576688, 576954, 577209, 577464, 577734, 577995, 578251, 578516, 578780, 579043, 579309, 579574, 579848, 580117, 580377, 580643, 580905, 581176, 581431, 581686, 581953, 582214, 582467, 582733, 582994, 583257, 583522, 583690, 584050, 584312, 584565, 584822, 585075, 585332, 585596, 585847, 586102, 586367, 586625, 586877, 587136, 587396, 587659, 587920, 588177, 588443, 588703, 588956, 589212, 589470, 589729, 589990, 590242, 590496, 590756, 591007, 591259, 591510, 591759, 592013, 592270, 592517, 592775, 593027, 593278, 593530, 593782, 594037, 594296, 594545, 594798, 595060, 595315, 595569, 595825, 596082, 596341, 596602, 596860, 597122, 597383, 597641, 597900, 598158, 598420, 598683, 598937, 599191, 599456, 599711, 599964, 600219, 600473, 600735, 600992, 601247, 601511, 601766, 602017, 602274, 602525, 602781, 603036, 603286, 603542, 603802, 604056, 604309, 604566, 604822, 605091, 605353, 605608, 605873, 606137, 606390, 606651, 606910, 607171, 607424, 607678, 607943, 608198, 608446, 608706, 608962, 609215, 609477, 609736, 609998, 610262, 610521, 610781, 611038, 611303, 611569, 611825, 612084, 612350, 612609, 612868, 613126, 613385, 613648, 613906, 614163, 614427, 614689, 614941, 615199, 615455, 615715, 615970, 616226, 616488, 616746, 617000, 617261, 617517, 617767, 618030, 618285, 618538, 618797, 619057, 619304, 619559, 619816, 620082, 620336, 620592, 620852, 621109, 621362, 621618, 621871, 622129, 622390, 622648, 622905, 623171, 623438, 623694, 623958, 624221, 624488, 624748, 624917, 625273, 625532, 625787, 626049, 626305, 626563, 626828, 627087, 627351, 627614, 627874, 628135, 628394, 628657, 628920, 629174, 629432, 629695, 629953, 630209, 630468, 630724, 630988, 631247, 631506, 631775, 632035, 632287, 632548, 632803, 633060, 633315, 633572, 633834, 634092, 634350, 634612, 634868, 635129, 635398, 635655, 635919, 636190, 636456, 636716, 636977, 637240, 637505, 637762, 638022, 638282, 638538, 638795, 639050, 639305, 639570, 639832, 640089, 640357, 640622, 640877, 641138, 641395, 641660, 641919, 642179, 642449, 642707, 642965, 643229, 643490, 643749, 644015, 644274, 644539, 644802, 645056, 645312, 645569, 645828, 646091, 646340, 646596, 646858, 647115, 647368, 647625, 647881, 648145, 648406, 648664, 648934, 649192, 649444, 649703, 649959
