peak_index
682
1401
1401
1826
2239
2669
3096
3521
3950
4373
4792
5231
5658
6091
6541
6975
7423
7856
8312
8753
9201
9640
10071
10511
10920
11339
11750
12171
12615
13056
13493
13945
14380
14833
15268
15707
16142
16573
17015
17443
17884
18338
18767
19217
19658
20099
20533
20975
21410
21848
22289
22727
23163
23608
24039
24478
24895
25326
25747
26165
26603
27029
27461
27887
28330
28769
29195
29638
30042
30479
30900
31338
31777
32222
32675
33110
33555
33997
34441
34874
35320
35750
36177
36619
37060
37494
37934
38366
38793
39213
39651
40076
40508
40947
41382
41819
42245
42684
43108
43535
43959
44375
44802
45221
45655
46083
46515
46959
47388
47816
48251
48680
49124
49562
49998
50429
50854
51293
51712
52142
52568
52977
53408
53829
54260
54687
55116
55551
55978
56395
56817
57235
57652
58092
58528
58992
59435
59888
60331
60777
61229
61670
62123
62557
63003
63426
63860
64291
64708
65129
65556
65967
66390
66811
67241
67659
68085
68518
68929
69357
69783
70208
70647
71065
71500
71916
72351
72782
73206
73643
74072
74507
74943
75368
75792
76209
76627
77058
77466
77889
78309
78717
79135
79543
79960
80371
80786
81215
81633
82063
82485
82919
83340
83768
84195
84617
85033
85458
85871
86295
86714
87147
87582
88011
88457
88883
89325
89757
90183
90628
91055
91496
91924
92371
92809
93255
93687
94132
94563
94993
95428
95843
96273
96696
97122
97549
97966
98391
98808
99228
99660
100092
100527
100971
101406
101850
102270
102698
103127
103545
103974
104394
104823
105259
105688
106123
106545
106979
107405
107830
108256
108686
109109
109543
109964
110394
110811
111237
111662
112077
112503
112920
113342
113764
114188
114625
115043
115468
115887
116300
116718
117144
117560
117984
118401
118826
119248
119670
120097
120513
120942
121350
121765
122181
122592
123019
123433
123865
124287
124702
125124
125544
125962
126389
126813
127235
127654
128067
128492
128901
129318
129732
130141
130564
130981
131413
131842
132265
132694
133103
133523
133931
134348
134772
135193
135629
136056
136494
136932
137351
137780
138223
138652
139094
139520
139959
140399
140823
141269
141698
142129
142546
142966
143391
143808
144237
144663
145103
145539
145987
146426
146859
147295
147729
148148
148572
148993
149426
149865
150295
150747
151173
151615
152045
152479
152919
153348
153781
154224
154649
155078
155502
155924
156354
156768
157200
157618
158048
158484
158901
159334
159755
160188
160614
161043
161469
161880
162307
162724
163149
163572
163993
164413
164827
165238
165669
166087
166517
166948
167379
167806
168236
168671
169080
169502
169919
170331
170758
171179
171611
172027
172464
172885
173296
173719
174141
174576
175003
175443
175877
176294
176713
177125
177542
177952
178369
178790
179213
179644
180075
180503
180928
181371
181801
182244
182685
183132
183576
184019
184459
184886
185321
185751
186186
186613
187045
187469
187887
188309
188736
189143
189563
189968
190382
190793
191204
191630
192039
192465
192890
193302
193729
194150
194578
194996
195431
195855
196265
196692
197114
197550
197974
198412
198835
199270
199703
200132
200564
200996
201430
201861
202285
202715
203138
203562
203987
204407
204819
205241
205657
206069
206482
206902
207318
207741
208158
208596
209018
209452
209891
210325
210760
211182
211615
212045
212481
212925
213351
213791
214224
214671
215105
215541
215971
216391
216820
217246
217669
218103
218529
218959
219384
219816
220250
220667
221098
221518
221940
222366
222792
223229
223642
224081
224501
224920
225350
225781
226216
226638
227075
227517
227935
228363
228793
229214
229645
230075
230507
230945
231362
231781
232173
232576
232967
233360
233762
234160
234575
234973
235399
235821
236244
236671
237093
237524
237942
238377
238800
239226
239651
240078
240502
240914
241341
241751
242176
242591
243032
243457
243892
244331
244750
245184
245616
246044
246472
246897
247333
247753
248184
248613
249039
249465
249892
250323
250745
251170
251603
252027
252466
252890
253328
253745
254173
254590
255006
255436
255848
256267
256679
257082
257486
257871
258251
258450
258621
258978
259335
259677
260016
260352
260684
261015
261321
261535
261892
262233
262571
262915
263261
263608
263965
264327
264690
265069
265457
265857
266267
266682
267116
267545
267982
268407
268842
269258
269688
270116
270534
270945
271340
271744
272109
272489
272865
273231
273615
273991
274389
274798
275212
275649
276078
276520
276952
277403
277830
278283
278713
279164
279596
280042
280476
280914
281354
281794
282234
282673
283118
283549
283992
284425
284860
285289
285717
286148
286558
286980
287385
287798
288205
288616
289037
289446
289875
290294
290729
291148
291579
292000
292433
292871
293299
293738
294158
294600
295021
295465
295895
296339
296768
297192
297624
298038
298464
298893
299311
299738
300158
300589
301012
301437
301860
302275
302691
303107
303524
303940
304357
304774
305187
305611
306028
306449
306872
307287
307706
308109
308525
308939
309372
309800
310232
310668
311089
311523
311944
312378
312813
313240
313676
314091
314530
314953
315381
315812
316227
316662
317087
317525
317954
318376
318802
319209
319627
320032
320451
320858
321286
321710
322126
322553
322986
323413
323845
324259
324680
325099
325522
325954
326368
326794
327208
327634
328062
328489
328908
329339
329778
330191
330620
331034
331460
331879
332293
332721
333131
333554
333966
334392
334815
335232
335663
336078
336500
336921
337331
337753
338167
338595
339015
339442
339879
340308
340745
341175
341609
342044
342477
342919
343342
343775
344199
344629
345053
345469
345893
346302
346726
347157
347570
348006
348420
348853
349271
349693
350113
350525
350956
351370
351802
352223
352647
353075
353487
353916
354329
354755
355176
355603
356028
356443
356872
357293
357711
358140
358557
358983
359412
359843
360272
360692
361133
361545
361968
362377
362802
363227
363649
364078
364466
364846
365219
365588
365958
366326
366697
367078
367468
367874
368308
368750
369200
369660
370099
370536
370977
371438
371875
372321
372761
373206
373641
374087
374531
374959
375396
375813
376236
376648
377063
377480
377877
378314
378737
379168
379612
380032
380471
380899
381348
381794
382224
382672
383121
383562
384019
384445
384883
385315
385766
386205
386656
387100
387541
387984
388423
388855
389289
389718
390154
390577
391012
391437
391868
392286
392711
393142
393555
393975
394396
394825
395246
395684
396109
396531
396957
397368
397785
398210
398630
399050
399457
399884
400315
400748
401195
401622
402062
402486
402931
403361
403809
404254
404686
405127
405551
405982
406400
406834
407259
407677
408100
408519
408943
409363
409791
410222
410639
411078
411509
411941
412371
412792
413222
413639
414058
414478
414886
415322
415740
416177
416597
417039
417481
417904
418346
418768
419199
419625
420051
420484
420897
421338
421756
422198
422628
423061
423488
423912
424338
424749
425171
425604
426023
426449
426869
427296
427714
428124
428549
428966
429381
429813
430227
430655
431062
431497
431925
432347
432785
433207
433644
434070
434511
434944
435375
435815
436230
436664
437084
437519
437940
438360
438783
439195
439616
440043
440464
440888
441300
441723
442140
442557
442988
443403
443835
444257
444694
445109
445543
445977
446409
446861
447287
447728
448150
448589
449021
449448
449880
450296
450729
451156
451592
452031
452460
452899
453323
453755
454195
454617
455043
455480
455915
456342
456779
457206
457634
458068
458483
458911
459328
459757
460185
460602
461035
461447
461865
462284
462690
463117
463534
463963
464400
464824
465255
465676
466103
466524
466954
467380
467798
468227
468653
469080
469508
469928
470351
470759
471183
471601
472021
472444
472857
473271
473678
474097
474521
474932
475363
475774
476202
476621
477062
477494
477914
478336
478747
479175
479596
480009
480433
480851
481272
481692
482108
482538
482960
483390
483826
484249
484676
485092
485526
485947
486385
486818
487248
487683
488100
488536
488945
489375
489795
490220
490646
491066
491493
491904
492334
492752
493164
493585
493994
494425
494841
495279
495710
496131
496560
496981
497406
497835
498255
498685
499105
499535
499962
500385
500817
501231
501646
502064
502482
502910
503315
503751
504165
504594
505020
505446
505872
506285
506721
507142
507567
507998
508418
508848
509266
509694
510118
510534
510958
511379
511800
512227
512641
513056
513465
513880
514303
514708
515135
515546
515968
516383
516812
517240
517660
518088
518501
518918
519334
519758
520177
520583
521016
521425
521855
522281
522707
523130
523552
523976
524394
524809
525237
525649
526069
526492
526904
527318
527722
528145
528561
528982
529408
529822
530239
530644
531062
531478
531888
532313
532721
533142
533545
533976
534395
534808
535237
535655
536082
536509
536925
537354
537770
538204
538622
539042
539466
539883
540301
540722
541147
541565
541975
542405
542821
543244
543662
544083
544499
544909
545340
545757
546177
546601
547015
547428
547855
548275
548715
549127
549563
549979
550412
550836
551270
551698
552118
552545
552953
553374
553795
554210
554621
555033
555455
555868
556290
556714
557134
557553
557971
558389
558795
559210
559630
560046
560466
560886
561304
561719
562134
562563
562972
563398
563812
564236
564646
565079
565502
565921
566352
566770
567194
567604
568027
568453
568877
569315
569730
570155
570562
570992
571420
571837
572268
572680
573106
573523
573947
574366
574775
575193
575592
576012
576425
576858
577267
577676
578079
578473
578869
579264
579662
580062
580470
580893
581322
581749
582188
582620
583053
583480
583911
584334
584750
585178
585598
586022
586459
586882
587312
587726
588154
588571
588999
589432
589849
590277
590692
591125
591549
591969
592395
592806
593231
593651
594078
594498
594919
595343
595752
596172
596596
597015
597439
597858
598283
598707
599129
599562
599976
600408
600823
601242
601661
602079
602504
602911
603343
603754
604171
604589
605000
605421
605821
606246
606659
607068
607490
607904
608329
608753
609170
609595
610005
610426
610859
611274
611705
612122
612542
612960
613374
613800
614212
614636
615058
615466
615892
616307
616733
617161
617584
618007
618416
618834
619256
619677
620111
620539
620975
621401
621826
622257
622667
623089
623517
623935
624365
624774
625204
625610
626034
626455
626859
627281
627695
628126
628552
628978
629408
629818
630246
630666
631099
631522
631956
632387
632805
633233
633656
634079
634498
634918
635338
635753
636179
636607
637018
637450
637862
638283
638696
639114
639540
639951
640371
640782
641190
641603
642012
642433
642839
643265
643684
644091
644506
644919
645337
645754
646164
646580
646987
647400
647819
648228
648651
649071
649497
649927
