peak_index
829
1417
1651
1971
2294
2486
2956
3297
3614
3924
4258
4446
4906
5240
5552
5882
6210
6521
6864
7200
7513
7708
8178
8376
8860
9050
9531
9735
10194
10407
10868
11064
11545
11863
12187
12502
12804
12998
13463
13655
14121
14323
14789
14979
15451
15768
16080
16405
16721
16907
17392
17722
17911
18389
18727
18920
19403
19614
20105
20437
20627
21102
21294
21764
21968
22411
22744
23063
23381
23722
24054
24406
24747
25071
25263
25756
26073
26402
26729
27047
27367
27695
27882
28371
28719
29056
29376
29705
29907
30386
30574
31066
31260
31727
32064
32375
32698
33025
33345
33667
34001
34329
34657
34995
35339
35667
36016
36355
36685
37028
37356
37682
38028
38353
38675
39015
39340
39658
39984
40300
40627
40952
41279
41608
41936
42125
42595
42927
43250
43562
43881
44206
44518
44835
45028
45492
45832
46161
46481
46814
47133
47324
47796
47990
48463
48695
49149
49490
49807
50001
50469
50795
50984
51461
51788
52115
52435
52748
52940
53408
53752
54080
54396
54726
55047
55367
55698
56020
56337
56672
56987
57172
57652
57972
58155
58624
58943
59136
59592
59789
60257
60570
60751
61208
61517
61845
62174
62492
62688
63195
63520
63715
64213
64569
64759
65249
65586
65775
66253
66587
66781
67262
67457
67936
68266
68454
68915
69117
69584
69786
70251
70476
70932
71121
71598
71798
72267
72605
72928
73250
73595
73923
74109
74595
74797
75281
75614
75933
76130
76613
76806
77287
77483
77956
78293
78607
78942
79275
79591
79924
80263
80602
80941
81286
81635
81821
82298
82641
82961
83151
83631
83824
84305
84635
84939
85136
85603
85797
86272
86588
86782
87254
87572
87768
88238
88574
88766
89241
89499
89949
90266
90457
90937
91285
91606
91919
92261
92448
92919
93263
93592
93919
94241
94428
94909
95246
95566
95881
96206
96399
96878
97214
97552
97873
98062
98533
98723
99202
99531
99847
100036
100511
100832
101152
101342
101812
102008
102471
102678
103150
103468
103658
104112
104427
104620
105068
105383
105591
106033
106220
106700
106892
107363
107570
108027
108363
108553
109016
109341
109530
109997
110317
110505
110975
111301
111487
111955
112280
112470
112937
113126
113600
113909
114210
114525
114829
115149
115478
115789
115975
116458
116653
117117
117442
117751
117944
118412
118729
118929
119392
119706
119898
120355
120674
120866
121310
121637
121823
122267
122585
122772
123230
123558
123876
124190
124381
124838
125032
125485
125804
126113
126423
126740
127048
127364
127684
127992
128309
128645
128957
129275
129608
129921
130105
130571
130762
131232
131558
131865
132067
132529
132722
133185
133500
133687
134148
134463
134646
135109
135424
135609
136068
136387
136581
137046
137363
137559
138027
138334
138521
138974
139295
139609
139931
140264
140587
140915
141240
141563
141899
142093
142564
142911
143230
143536
143864
144176
144495
144824
145136
145458
145791
146109
146424
146754
147076
147402
147725
148042
148366
148688
148997
149317
149645
149967
150280
150604
150932
151235
151548
151737
152195
152533
152858
153166
153491
153688
154155
154491
154803
155124
155456
155768
156099
156440
156760
156943
157424
157751
157947
158425
158748
158947
159428
159745
159934
160393
160716
160903
161355
161555
162016
162334
162639
162827
163305
163624
163950
164291
164611
164930
165265
165585
165773
166257
166448
166929
167267
167577
167773
168243
168440
168914
169109
169583
169916
170222
170539
170862
171051
171527
171865
172201
172517
172838
173034
173504
173853
174181
174496
174834
175151
175468
175805
176120
176442
176782
177108
177431
177765
178088
178404
178727
179053
179376
179696
180015
180336
180659
180976
181287
181612
181937
182252
182576
182899
183224
183551
183874
184191
184526
184848
185171
185505
185822
186145
186469
186784
187104
187438
187764
188078
188418
188753
189064
189393
189716
190035
190362
190681
191005
191333
191650
191968
192292
192617
192941
193266
193591
193907
194219
194531
194840
195154
195476
195783
196110
196307
196775
197115
197441
197757
198092
198277
198754
199103
199435
199757
200085
200272
200760
201102
201431
201756
202082
202267
202745
203087
203414
203723
204050
204367
204557
205038
205361
205550
206045
206374
206561
207049
207384
207570
208043
208378
208570
209044
209378
209569
210043
210241
210719
211039
211235
211696
212027
212223
212687
213004
213189
213651
213845
214313
214622
214820
215270
215580
215772
216253
216592
216779
217261
217593
217924
218244
218566
218889
219219
219537
219733
220210
220535
220725
221195
221386
221864
222185
222491
222811
223131
223444
223771
223958
224430
224780
225095
225405
225741
225929
226403
226754
227082
227408
227740
227925
228418
228764
229085
229396
229723
230054
230366
230696
231028
231341
231666
231992
232310
232647
232966
233282
233623
233937
234119
234596
234920
235109
235583
235908
236233
236557
236864
237181
237511
237837
238150
238484
238811
239137
239466
239792
240116
240457
240777
240968
241458
241788
241980
242451
242777
242967
243447
243764
244096
244414
244721
244914
245391
245718
245911
246385
246707
247029
247347
247665
247852
248321
248650
248841
249308
249647
249976
250283
250600
250923
251240
251557
251880
252204
252527
252842
253164
253479
253809
254136
254444
254775
254964
255432
255773
256091
256415
256747
256933
257412
257754
258070
258384
258697
258887
259358
259689
260010
260329
260658
260840
261322
261670
262001
262326
262664
262987
263175
263658
263983
264171
264658
264984
265172
265654
265851
266343
266668
267001
267340
267655
267842
268324
268519
268993
269324
269638
269830
270302
270495
270976
271316
271627
271952
272282
272604
272791
273267
273597
273788
274261
274584
274773
275250
275579
275764
276241
276440
276916
277108
277574
277908
278218
278406
278882
279213
279397
279878
280203
280396
280876
281199
281394
281862
282187
282376
282839
283033
283499
283694
284165
284400
284848
285191
285516
285839
286165
286348
286834
287180
287502
287823
288157
288487
288801
289129
289457
289785
290108
290427
290744
291077
291387
291700
292035
292349
292661
292992
293303
293625
293955
294139
294611
294953
295273
295597
295922
296239
296432
296920
297111
297594
297934
298252
298436
298924
299121
299596
299932
300255
300444
300923
301263
301451
301938
302130
302611
302939
303254
303572
303887
304198
304532
304858
305178
305525
305860
306180
306518
306844
307175
307502
307818
308011
308499
308822
309152
309483
309808
310125
310443
310768
311080
311391
311706
312020
312350
312664
312851
313328
313656
313845
314320
314640
314971
315299
315610
315937
316267
316574
316902
317232
317559
317882
318212
318400
318884
319221
319558
319876
320208
320400
320872
321220
321545
321863
322200
322521
322844
323181
323497
323682
324177
324371
324848
325179
325496
325691
326163
326491
326817
327015
327478
327810
328138
328458
328654
329130
329456
329787
330113
330444
330761
331095
331423
331736
331940
332412
332731
333045
333363
333682
333990
334312
334500
334976
335316
335653
335968
336305
336639
336957
337294
337622
337940
338280
338612
338941
339286
339613
339948
340280
340594
340785
341262
341594
341792
342259
342594
342782
343245
343576
343765
344236
344572
344760
345237
345562
345751
346211
346526
346714
347186
347499
347686
348153
348353
348820
349010
349472
349805
350116
350424
350743
350938
351397
351729
352049
352367
352557
353031
353234
353705
354042
354355
354543
355016
355208
355672
356003
356315
356638
356963
357277
357613
357931
358118
358611
358817
359288
359625
359940
360267
360588
360906
361230
361561
361874
362191
362517
362836
363154
363476
363798
364121
364446
364767
365082
365409
365736
366051
366385
366574
367046
367382
367701
368009
368198
368664
368860
369332
369672
369990
370306
370641
370973
371296
371620
371950
372272
372594
372915
373231
373571
373896
374212
374561
374898
375217
375559
375889
376076
376564
376750
377236
377586
377894
378209
378527
378845
379159
379478
379804
380120
380441
380760
381079
381412
381736
382062
382403
382729
382919
383411
383607
384108
384309
384806
385166
385504
385842
386179
386514
386859
387201
387543
387742
388238
388591
388776
389274
389475
389964
390154
390649
390990
391320
391505
392000
392344
392674
393017
393355
393687
393877
394366
394559
395057
395249
395734
396094
396425
396744
397069
397409
397734
398053
398246
398732
398917
399394
399590
400071
400406
400597
401071
401385
401676
401966
402158
402514
402709
403036
403228
403538
403803
404048
404234
404679
404979
405284
405596
405899
406082
406561
406872
407181
407504
407691
408172
408359
408829
409036
409504
409690
410160
410349
410811
411119
411408
411716
412021
412213
412666
412855
413313
413512
413952
414262
414558
414852
415038
415458
415643
416067
416279
416667
416859
417277
417485
417862
418134
418405
418686
418976
419162
419610
419935
420245
420564
420876
421065
421524
421844
422030
422482
422796
422977
423419
423728
423916
424346
424648
424840
425272
425469
425896
426095
426527
426720
427142
427329
427754
428051
428340
428627
428816
429248
429443
429863
430165
430460
430761
430947
431381
431676
431977
432272
432457
432878
433063
433475
433763
433949
434334
434620
434890
435078
435458
435735
436011
436202
436553
436821
437016
437376
437594
437854
438133
438401
438585
438991
439286
439471
439933
440256
440441
440953
441307
441484
442008
442356
442701
443033
443368
443562
444063
444255
444743
444935
445425
445616
446086
446410
446735
447053
447365
447560
448034
448367
448551
449029
449220
449692
450007
450192
450667
450987
451305
451499
451970
452152
452622
452812
453301
453629
453964
454158
454643
454976
455307
455496
455988
456179
456660
456995
457184
457665
457856
458343
458683
458865
459354
459696
459884
460354
460687
460876
461347
461683
461870
462342
462539
462982
463168
463625
463937
464248
464573
464914
465102
465625
465822
466354
466571
467065
467259
467780
467960
468444
468636
469112
469308
469781
470108
470439
470624
471105
471295
471807
472139
472472
472803
473137
473323
473816
474159
474353
474847
475187
475534
475721
476198
476387
476876
477074
477558
477902
478240
478430
478913
479105
479598
479795
480273
480466
480957
481150
481627
481816
482291
482490
482948
483141
483588
483888
484185
484464
484752
485055
485349
485644
485966
486287
486602
486938
487279
487614
487958
488311
488661
489006
489195
489709
489906
490399
490586
491055
491265
491723
492037
492224
492664
492979
493168
493600
493794
494243
494540
494848
495163
495484
495816
496006
496481
496674
497155
497347
497823
498015
498498
498690
499162
499488
499676
500119
500315
500748
501052
501349
501534
501968
502161
502584
502894
503081
503538
503861
504048
504523
504715
505188
505381
505895
506088
506595
506949
507144
507638
507992
508180
508676
508878
509370
509714
509903
510390
510732
511062
511250
511736
511932
512423
512760
513088
513284
513766
513964
514462
514792
514986
515477
515819
516152
516476
516667
517167
517506
517859
518193
518520
518721
519203
519405
519894
520225
520423
520893
521215
521532
521723
522188
522379
522816
523134
523325
523758
523957
524406
524726
525047
525236
525734
525930
526410
526614
527082
527416
527605
528058
528383
528569
529016
529339
529525
529996
530321
530511
530978
531298
531491
531939
532129
532590
532787
533237
533549
533863
534186
534517
534705
535198
535400
535897
536086
536572
536779
537246
537463
537912
538107
538565
538764
539224
539536
539850
540157
540477
540801
541128
541472
541815
542151
542504
542852
543202
543559
543898
544253
544601
544933
545275
545620
545971
546158
546667
546867
547358
547563
548044
548249
548723
548925
549384
549711
549901
550358
550677
550994
551190
551632
551829
552254
552443
552828
553104
553290
553637
553908
554167
554423
554683
554946
555139
555484
555762
555948
556321
556519
556892
557165
557435
557634
558018
558228
558609
558898
559204
559398
559826
560143
560466
560659
561142
561494
561836
562172
562360
562886
563229
563564
563752
564252
564586
564925
565251
565587
565923
566229
566536
566725
567132
567326
567775
568085
568387
568592
569032
569224
569686
569998
570315
570506
570958
571151
571569
571856
572143
572332
572745
573031
573318
573601
573789
574184
574384
574783
575081
575370
575562
575967
576262
576561
576872
577177
577363
577856
578044
578547
578873
579061
579541
579877
580060
580569
580937
581129
581647
581845
582355
582717
582909
583427
583616
584146
584490
584822
585163
585494
585824
586013
586522
586715
587190
587540
587861
588171
588363
588818
589008
589469
589789
590090
590388
590711
590904
591379
591722
592049
592369
592691
593018
593338
593682
594022
594352
594696
595057
595404
595733
595933
596430
596764
596950
597438
597763
598082
598410
598742
599087
599284
599793
600143
600499
600842
601194
601383
601912
602112
602641
602982
603162
603678
604018
604360
604685
605007
605213
605696
606023
606210
606691
607021
607346
607664
607975
608292
608617
608938
609256
609605
609933
610249
610444
610925
611112
611591
611933
612262
612574
612759
613234
613430
613891
614096
614561
614897
615224
615425
615924
616274
616467
616978
617322
617515
618019
618369
618708
619052
619389
619723
620087
620432
620777
621137
621489
621828
622171
622522
622866
623195
623546
623892
624217
624548
624886
625226
625566
625907
626250
626577
626920
627262
627587
627927
628269
628601
628937
629279
629605
629936
630276
630618
630948
631280
631612
631938
632272
632607
632933
633122
633606
633801
634289
634636
634956
635270
635589
635904
636213
636522
636842
637159
637467
637794
638115
638430
638624
639101
639432
639759
640095
640428
640756
640951
641450
641792
642128
642480
642819
643159
643502
643856
644195
644525
644880
645228
645557
645748
646226
646557
646880
647197
647520
647836
648153
648479
648792
649129
649468
649788
