peak_index
719
1214
1567
1921
2280
2642
3010
3377
3737
4109
4462
4817
5185
5540
5902
6265
6626
6982
7339
7695
8045
8393
8748
9098
9448
9795
10156
10508
10855
11218
11573
11931
12293
12653
13019
13396
13762
14138
14513
14887
15263
15635
16005
16385
16747
17110
17477
17836
18186
18536
18884
19244
19595
19950
20317
20679
21046
21417
21777
22148
22516
22874
23237
23600
23959
24310
24658
25001
25358
25714
26066
26431
26789
27143
27508
27871
28236
28606
28969
29340
29713
30086
30454
30828
31196
31576
31946
32312
32684
33056
33417
33778
34146
34517
34883
35249
35621
35990
36353
36721
37088
37459
37840
38207
38580
38951
39312
39672
40030
40381
40739
41087
41436
41803
42157
42505
42862
43210
43565
43922
44278
44641
45001
45365
45713
46069
46421
46776
47123
47473
47814
48157
48491
48829
49176
49519
49871
50213
50564
50917
51253
51600
51937
52273
52600
52938
53276
53620
53979
54339
54699
55062
55421
55777
56140
56488
56838
57190
57538
57883
58226
58575
58923
59278
59621
59970
60320
60662
61004
61349
61693
62036
62383
62718
63056
63389
63727
64053
64383
64713
65045
65386
65730
66070
66421
66764
67113
67449
67792
68141
68474
68812
69164
69513
69853
70200
70550
70909
71276
71624
71975
72347
72711
73076
73450
73821
74196
74566
74924
75297
75665
76020
76386
76748
77108
77470
77818
78169
78524
78872
79217
79565
79913
80260
80610
80959
81309
81651
81997
82340
82686
83035
83387
83739
84082
84436
84782
85135
85486
85830
86167
86510
86849
87189
87536
87873
88216
88562
88909
89265
89621
89976
90341
90705
91068
91413
91767
92118
92462
92813
93156
93510
93866
94216
94566
94919
95279
95642
96008
96360
96726
97099
97463
97834
98197
98565
98936
99296
99661
100026
100390
100752
101117
101483
101856
102227
102599
102981
103355
103727
104102
104474
104839
105197
105565
105930
106289
106646
107009
107367
107721
108081
108438
108790
109150
109508
109864
110224
110585
110956
111320
111680
112053
112420
112783
113153
113519
113891
114260
114621
114991
115356
115711
116074
116423
116771
117131
117477
117824
118174
118518
118871
119231
119602
119975
120340
120709
121085
121458
121826
122197
122557
122920
123286
123642
124009
124383
124741
125090
125449
125799
126158
126518
126879
127250
127623
127988
128364
128723
129097
129478
129852
130218
130599
130972
131331
131691
132055
132425
132780
133136
133507
133865
134226
134590
134947
135309
135678
136040
136401
136763
137117
137470
137825
138173
138536
138897
139246
139608
139957
140304
140651
141003
141346
141695
142025
142356
142692
143020
143340
143659
143969
144276
144589
144896
145211
145526
145849
146176
146501
146824
147145
147465
147788
148105
148414
148734
149047
149356
149670
149990
150309
150635
150965
151302
151648
151986
152319
152657
152991
153337
153682
154028
154373
154723
155071
155408
155752
156090
156423
156766
157103
157440
157790
158135
158481
158830
159188
159545
159912
160267
160611
160966
161317
161654
162008
162352
162707
163060
163405
163742
164093
164436
164769
165112
165447
165788
166139
166482
166836
167197
167556
167904
168262
168616
168964
169315
169663
170020
170382
170738
171081
171437
171795
172154
172492
172840
173185
173523
173853
174187
174513
174852
175205
175549
175900
176260
176610
176951
177302
177645
177980
178319
178659
179005
179367
179725
180090
180455
180823
181180
181549
181911
182279
182639
182989
183340
183684
184031
184382
184728
185067
185417
185765
186109
186459
186811
187163
187526
187885
188239
188610
188971
189311
189662
190015
190373
190732
191080
191439
191796
192151
192502
192858
193220
193589
193942
194296
194661
195018
195366
195721
196074
196438
196799
197167
197538
197907
198270
198634
198998
199363
199730
200094
200454
200822
201190
201549
201913
202268
202619
202977
203337
203703
204071
204434
204805
205174
205538
205900
206261
206628
206997
207365
207722
208083
208444
208815
209178
209545
209923
210297
210673
211057
211432
211822
212201
212579
212967
213344
213717
214092
214471
214855
215231
215601
215975
216336
216696
217062
217421
217782
218157
218527
218897
219283
219658
220028
220406
220786
221171
221540
221915
222298
222680
223053
223428
223811
224195
224563
224927
225303
225666
226026
226395
226756
227125
227497
227862
228241
228616
228984
229358
229724
230091
230469
230836
231207
231583
231950
232321
232686
233044
233413
233767
234134
234507
234873
235229
235590
235948
236313
236679
237041
237404
237766
238126
238494
238856
239229
239602
239974
240354
240729
241104
241474
241846
242222
242587
242963
243337
243707
244081
244451
244814
245189
245562
245927
246279
246649
247010
247358
247720
248081
248440
248802
249154
249519
249882
250237
250595
250961
251323
251697
252051
252413
252779
253144
253494
253853
254210
254572
254933
255291
255653
256005
256364
256727
257088
257444
257806
258167
258535
258918
259293
259643
260014
260380
260747
261118
261472
261840
262208
262567
262941
263307
263685
264069
264443
264803
265181
265552
265914
266277
266643
267022
267396
267765
268150
268521
268888
269265
269641
270017
270391
270761
271133
271492
271843
272201
272560
272931
273295
273657
274030
274397
274766
275131
275490
275849
276221
276573
276932
277286
277626
277966
278320
278665
279021
279383
279739
280099
280451
280808
281157
281508
281858
282213
282564
282903
283247
283599
283957
284321
284686
285050
285419
285770
286131
286501
286860
287211
287568
287921
288283
288634
288984
289344
289698
290053
290409
290758
291123
291495
291860
292228
292598
292970
293326
293694
294056
294423
294787
295144
295513
295879
296231
296595
296954
297321
297687
298049
298413
298782
299151
299507
299879
300242
300613
300976
301336
301710
302070
302423
302782
303133
303485
303837
304185
304533
304887
305239
305590
305941
306291
306651
307005
307363
307723
308078
308429
308800
309164
309529
309900
310264
310627
311003
311374
311739
312103
312465
312833
313200
313571
313951
314321
314681
315046
315403
315769
316137
316501
316870
317238
317599
317964
318322
318692
319072
319445
319819
320198
320571
320938
321310
321671
322044
322394
322741
323112
323472
323821
324184
324543
324896
325254
325611
325968
326330
326691
327054
327411
327773
328139
328495
328846
329211
329558
329912
330267
330613
330967
331321
331680
332037
332403
332763
333116
333468
333829
334198
334562
334915
335282
335649
336000
336364
336720
337074
337437
337792
338143
338494
338851
339192
339549
339892
340236
340576
340925
341283
341634
341990
342346
342691
343043
343405
343766
344128
344498
344861
345206
345558
345902
346243
346589
346924
347252
347585
347936
348275
348619
348964
349316
349676
350046
350416
350795
351168
351548
351925
352308
352701
353086
353478
353863
354247
354621
354993
355368
355754
356119
356485
356868
357246
357622
357996
358365
358742
359121
359484
359868
360251
360616
360992
361369
361756
362130
362506
362883
363263
363634
364005
364256
364713
364947
365445
365824
366194
366552
366924
367292
367666
368046
368412
368788
369147
369511
369877
370233
370597
370963
371322
371682
372055
372415
372769
373127
373484
373846
374200
374553
374919
375280
375638
375998
376349
376706
377070
377426
377785
378150
378513
378871
379237
379592
379951
380308
380662
381022
381378
381735
382096
382455
382814
383187
383550
383917
384282
384642
384989
385328
385673
386031
386386
386735
387099
387474
387848
388222
388585
388955
389334
389695
390048
390417
390777
391126
391489
391845
392201
392556
392913
393273
393634
393994
394356
394714
395079
395450
395818
396183
396556
396928
397296
397655
398025
398388
398742
399101
399473
399839
400201
400570
400934
401299
401662
402025
402397
402767
403123
403478
403835
404194
404562
404933
405298
405667
406038
406393
406755
407110
407475
407841
408199
408579
408944
409315
409686
410057
410423
410797
411167
411540
411909
412282
412663
413028
413400
413780
414151
414527
414906
415275
415646
416017
416398
416781
417154
417536
417917
418297
418675
419040
419412
419784
420149
420514
420886
421260
421620
421987
422360
422732
423108
423484
423862
424238
424605
424977
425350
425729
426103
426480
426857
427232
427604
427978
428358
428731
429107
429485
429862
430239
430613
430987
431358
431734
432113
432482
432856
433232
433608
433979
434346
434717
435102
435479
435861
436246
436629
437008
437384
437758
438145
438525
438901
439288
439673
440052
440435
440805
441181
441552
441922
442298
442662
443021
443393
443759
444118
444480
444841
445210
445574
445925
446286
446637
446998
447366
447724
448082
448455
448812
449165
449525
449886
450246
450597
450953
451311
451662
452020
452384
452753
453116
453490
453862
454244
454617
454986
455357
455730
456106
456487
456861
457243
457614
457981
458350
458724
459096
459478
459849
460226
460608
460990
461364
461727
462098
462477
462847
463212
463583
463941
464302
464660
465023
465386
465759
466122
466491
466862
467227
467604
467965
468329
468702
469068
469430
469798
470163
470520
470878
471242
471609
471970
472325
472689
473039
473379
473738
474089
474455
474824
475189
475568
475951
476330
476711
477094
477479
477871
478251
478642
479037
479421
479803
480184
480565
480948
481315
481699
482082
482463
482833
483205
483585
483962
484332
484707
485096
485478
485848
486233
486615
486999
487369
487741
488119
488497
488871
489233
489588
489963
490324
490683
491055
491427
491800
492182
492557
492929
493301
493672
494051
494417
494793
495174
495541
495918
496295
496667
497035
497406
497763
498123
498481
498850
499221
499593
499975
500347
500710
501092
501476
501852
502239
502614
502993
503384
503763
504145
504530
504921
505303
505676
506057
506437
506820
507201
507576
507961
508335
508707
509084
509469
509852
510242
510625
510998
511374
511746
512122
512507
512883
513256
513639
514025
514398
514776
515142
515515
515873
516241
516603
516969
517339
517709
518059
518428
518796
519164
519543
519921
520299
520674
521042
521385
521742
522107
522478
522840
523210
523592
523967
524349
524730
525110
525489
525872
526246
526621
526991
527362
527736
528097
528455
528816
529180
529550
529919
530280
530650
531012
531344
531682
532008
532333
532668
532992
533306
533639
533968
534302
534640
534974
535300
535638
535971
536305
536647
536979
537316
537653
537989
538336
538689
539036
539376
539729
540072
540412
540761
541109
541461
541812
542164
542514
542876
543235
543590
543948
544304
544673
545032
545381
545738
546086
546437
546788
547136
547490
547846
548191
548532
548891
549240
549574
549919
550256
550581
550919
551251
551576
551904
552232
552550
552874
553192
553511
553833
554148
554456
554770
555086
555393
555692
556006
556308
556611
556917
557214
557506
557796
558090
558164
558373
558651
558931
559208
559483
559752
560036
560306
560582
560858
561137
561410
561688
561956
562237
562511
562789
563071
563345
563624
563905
564189
564462
564744
565015
565289
565562
565829
566100
566364
566633
566894
567167
567432
567701
567966
568239
568510
568785
569059
569345
569621
569895
570178
570460
570745
571021
571313
571599
571884
572177
572466
572749
573034
573326
573603
573885
574163
574437
574714
574990
575268
575541
575814
576087
576369
576648
576925
577205
577484
577764
578044
578331
578607
578888
579169
579454
579734
580012
580288
580570
580846
581118
581405
581676
581795
581946
582221
582497
582767
583028
583293
583557
583818
584080
584344
584425
584604
584867
585124
585395
585650
585918
586175
586445
586714
586984
587256
587535
587805
588077
588360
588637
588916
589189
589478
589762
590050
590343
590632
590919
591204
591499
591777
592063
592339
592625
592913
593194
593494
593779
594070
594366
594667
594966
595253
595554
595840
596128
596428
596724
597027
597327
597638
597937
598235
598533
598837
599139
599449
599759
600053
600361
600676
600983
601290
601595
601901
602208
602520
602828
603134
603438
603761
604078
604381
604690
605004
605318
605636
605946
606258
606569
606885
607197
607506
607820
608120
608430
608740
609048
609356
609673
609990
610291
610589
610894
611193
611492
611798
612104
612402
612707
613015
613313
613606
613905
614203
614501
614798
615095
615391
615686
615995
616297
616596
616906
617204
617511
617820
618124
618432
618729
619041
619352
619656
619968
620276
620582
620898
621213
621525
621841
622160
622476
622778
623088
623396
623700
624002
624302
624605
624917
625223
625531
625841
626156
626471
626786
627103
627413
627713
628029
628337
628649
628960
629271
629583
629900
630211
630521
630826
631139
631449
631749
632048
632353
632658
632960
633271
633571
633870
634183
634484
634768
635051
635347
635637
635926
636214
636502
636791
637084
637377
637673
637955
638252
638543
638836
639134
639430
639728
640029
640331
640631
640928
641232
641534
641839
642151
642455
642763
643067
643381
643685
643978
644281
644581
644872
645170
645469
645755
646046
646348
646633
646928
647226
647514
647816
648112
648404
648704
648996
649286
649588
649876
