peak_index
692
1550
1988
2443
2884
3306
3742
4154
4593
5015
5456
5877
6325
6755
7198
7632
8071
8498
8935
9354
9792
10219
10660
11085
11516
11950
12385
12810
13235
13670
14099
14526
14981
15418
15864
16315
16766
17199
17648
18088
18537
18982
19414
19867
20316
20771
21220
21649
22092
22531
22986
23421
23897
24360
24814
25251
25687
26107
26539
26951
27394
27851
28276
28724
29137
29573
30020
30449
30887
31317
31753
32195
32640
33084
33516
33955
34395
34841
35265
35689
36127
36585
37031
37479
37933
38369
38825
39275
39715
40171
40635
41087
41515
41958
42378
42822
43246
43678
44109
44555
44975
45422
45861
46298
46744
47169
47607
48056
48491
48927
49346
49786
50209
50644
51073
51506
51950
52381
52825
53245
53665
54104
54532
54978
55392
55830
56274
56709
57142
57570
58016
58435
58872
59294
59720
60159
60586
61018
61429
61869
62299
62731
63151
63573
64006
64420
64865
65284
65710
66145
66579
67012
67444
67890
68320
68762
69198
69622
70068
70512
70944
71382
71828
72264
72714
73141
73574
74004
74431
74877
75304
75748
76199
76662
77101
77545
77989
78422
78872
79308
79766
80227
80677
81120
81559
82005
82442
82879
83315
83747
84195
84636
85083
85513
85946
86384
86821
87252
87685
88133
88575
89021
89457
89883
90319
90758
91177
91607
92050
92472
92922
93355
93775
94208
94637
95063
95467
95889
96297
96733
97142
97574
97999
98413
98829
99233
99635
100043
100433
100828
101205
101584
101951
102321
102693
103054
103412
103765
104125
104474
104827
105164
105502
105836
106174
106506
106850
107183
107527
107873
108222
108571
108932
109278
109529
109883
110245
110592
110955
111312
111681
112071
112460
112854
113214
113584
113953
114325
114697
115074
115450
115821
116211
116586
116973
117357
117741
118143
118530
118936
119335
119704
120090
120463
120853
121231
121617
122007
122394
122777
123150
123529
123920
124317
124705
125103
125473
125859
126238
126625
127012
127385
127774
128157
128536
128924
129308
129685
130065
130443
130826
131205
131588
131990
132373
132778
133156
133555
133942
134352
134744
135161
135562
135960
136368
136769
137174
137559
137953
138352
138748
139143
139527
139900
140298
140699
141103
141502
141896
142298
142684
143096
143491
143908
144313
144742
145150
145563
145962
146388
146794
147217
147614
148024
148414
148820
149208
149612
150008
150413
150843
151246
151648
152044
152442
152822
153207
153594
153987
154371
154768
155156
155561
155957
156369
156777
157175
157568
157979
158386
158796
159193
159592
160000
160346
160815
161235
161652
162069
162481
162890
163297
163695
164108
164503
164923
165325
165749
166178
166605
167027
167456
167858
168285
168691
169129
169533
169960
170367
170787
171189
171613
172018
172430
172830
173239
173634
174030
174426
174819
175218
175601
175995
176376
176765
177151
177553
177956
178374
178796
179206
179621
180037
180463
180895
181319
181732
182170
182587
183029
183458
183895
184322
184764
185196
185637
186066
186495
186910
187325
187743
188181
188599
189049
189478
189889
190316
190717
191122
191497
191886
192313
192706
193117
193514
193912
194299
194653
195044
195417
195782
196165
196530
196907
197277
197639
198022
198400
198763
199149
199530
199879
200242
200593
200962
201350
201747
202139
202546
202944
203344
203750
204154
204564
204971
205380
205793
206201
206613
207014
207413
207812
208217
208622
209022
209424
209816
210231
210630
211043
211433
211833
212232
212627
213020
213400
213798
214205
214603
215004
215403
215781
216187
216570
216983
217368
217762
218160
218550
218946
219333
219719
220010
220481
220871
221262
221574
222007
222403
222811
223197
223584
223964
224362
224749
225154
225539
225935
226328
226730
227157
227557
227952
228358
228756
229168
229552
229953
230360
230748
231151
231530
231925
232320
232717
233116
233499
233890
234275
234676
235071
235470
235850
236256
236642
237054
237446
237845
238246
238649
239054
239454
239856
240271
240680
241093
241497
241914
242332
242752
243169
243580
244012
244442
244870
245279
245691
246111
246505
246908
247281
247676
248064
248449
248863
249242
249644
250045
250442
250850
251227
251624
252008
252398
252795
253175
253568
253968
254380
254773
255172
255553
255949
256337
256739
257138
257546
257946
258370
258785
259201
259605
260029
260426
260839
261231
261635
262043
262445
262854
263244
263644
264042
264446
264849
265255
265655
266074
266463
266878
267265
267667
268067
268465
268874
269281
269686
270093
270502
270909
271322
271714
272137
272540
272962
273361
273766
274175
274593
275018
275423
275833
276244
276653
277061
277466
277872
278282
278686
279099
279494
279900
280297
280702
281094
281487
281879
282297
282706
283119
283522
283927
284347
284756
285171
285571
285989
286396
286815
287215
287656
288088
288500
288910
289319
289718
290128
290528
290952
291362
291760
292190
292600
293031
293436
293836
294238
294658
295066
295488
295899
296719
297134
297550
297977
298372
298789
299183
299592
300005
300411
300845
301272
301700
302118
302537
302947
303357
303745
304146
304539
304935
305332
305725
306145
306542
306969
307368
307777
308191
308604
309022
309421
309829
310246
310670
311092
311497
311908
312313
312737
313141
313560
313972
314394
314817
315237
315643
316065
316485
316911
317333
317738
318174
318589
319019
319425
319854
320261
320690
321098
321517
321931
322348
322783
323188
323599
324034
324453
324875
325288
325699
326134
326554
326976
327396
327822
328233
328659
329059
329465
329879
330278
330692
331086
331483
331868
332276
332678
333077
333459
333846
334248
334677
335084
335505
335914
336329
336743
337156
337564
337929
338380
338820
339241
339686
340117
340542
340962
341379
341790
342205
342628
343029
343446
343861
344280
344697
345117
345540
345968
346367
346800
347206
347613
348029
348459
348868
349286
349694
350114
350536
350958
351368
351800
352215
352656
353093
353522
353950
354368
354793
355206
355612
356029
356445
356867
357292
357709
358129
358554
358957
359241
359752
360161
360603
361014
361436
361855
362268
362684
363103
363515
363928
364322
364734
365132
365542
365960
366380
366797
367225
367643
368072
368488
368910
369324
369757
370178
370615
371029
371453
371880
372282
372714
373131
373533
373967
374401
374821
375228
375653
375980
376478
376877
377216
377709
378108
378486
378956
379371
379678
380184
380613
381019
381425
381794
382153
382515
382860
383221
383568
384134
384518
384968
385362
385779
386180
386629
387049
387464
387877
388301
388719
389136
389538
389967
390383
390819
391235
391705
392149
392590
393004
393425
393833
394252
394678
395104
395519
395948
396363
396781
397184
397598
398004
398428
398837
399244
399668
400069
400496
400895
401328
401759
402172
402606
403029
403457
403891
404328
404760
405187
405610
406034
406477
406892
407310
407733
408156
408588
409015
409450
409889
410326
410752
411200
411646
412069
412513
412941
413351
413780
414189
414630
415042
415466
415881
416312
416723
417150
417562
417977
418383
418793
419191
419603
420003
420417
420821
421219
421628
422035
422466
422887
423312
423735
424163
424591
425024
425442
425871
426305
426732
427147
427581
427990
428433
428843
429259
429671
430087
430494
430912
431306
431723
432129
432545
432932
433329
433738
434161
434570
434988
435400
435824
436247
436667
437079
437512
437913
438341
438747
439002
439477
439912
440351
440770
441191
441610
442035
442450
442863
443268
443694
444109
444546
444952
445375
445789
446220
446618
447040
447460
447882
448307
448724
449126
449555
449956
450381
450785
451188
451599
452003
452418
452817
453230
453643
454062
454474
454884
455291
455713
456129
456549
456965
457397
457809
458242
458653
459069
459480
459904
460336
460770
461192
461623
462048
462476
462892
463319
463719
464150
464566
464990
465417
465850
466279
466699
467108
467534
467966
468375
468792
469212
469628
470036
470450
470858
471273
471683
472098
472503
472907
473309
473705
474099
474465
474825
475173
475536
475909
476271
476635
477006
477380
477761
478144
478520
478920
479307
479691
480079
480471
480860
481262
481660
482077
482498
482903
483337
483740
484156
484545
484940
485326
485716
486106
486501
486881
487279
487660
488053
488453
488833
489244
489627
490043
490427
490828
491229
491616
492014
492405
492793
493180
493565
493960
494360
494754
495164
495558
495956
496368
496764
497181
497563
497967
498347
498740
499135
499523
499919
500305
500694
501079
501463
501846
502227
502600
502974
503349
503725
504109
504489
504869
505267
505604
506045
506418
506704
507166
507542
507863
508329
508697
509094
509467
509859
510229
510609
510985
511370
511752
512137
512519
512913
513297
513693
514074
514451
514818
515205
515582
515975
516344
516725
517109
517492
517875
518254
518621
519005
519364
519750
520114
520497
520880
521266
521658
522039
522422
522796
523178
523563
523947
524325
524706
525096
525488
525878
526261
526636
527023
527390
527770
528137
528514
528905
529289
529679
530060
530443
530833
531216
531605
531980
532352
532726
533116
533500
533896
534278
534652
535036
535420
535810
536189
536549
536930
537288
537675
538039
538415
538782
539154
539532
539902
540253
540605
540979
541350
541715
542067
542423
542795
543147
543459
543824
544174
544529
544904
545264
545624
545967
546318
546678
547035
547399
547779
548159
548543
548947
549350
549750
550138
550537
550941
551360
551768
552173
552574
552986
553389
553787
554172
554567
554960
555359
555765
556147
556541
556926
557323
557714
558091
558479
558852
559232
559617
560000
560379
560768
561137
561523
561915
562300
562694
563070
563465
563846
564232
564627
565008
565311
565790
566187
566593
566974
567371
567745
568134
568517
568903
569292
569676
570057
570426
570790
571143
571508
571861
572225
572623
573019
573431
573817
574195
574592
574964
575354
575714
576088
576463
576820
577190
577544
577910
578292
578676
579060
579428
579786
580165
580538
580903
581292
581661
582047
582423
582811
583200
583582
583949
584320
584679
585045
585417
585774
586126
586504
586866
587243
587606
587962
588323
588682
589054
589421
589804
590181
590571
590950
591332
591731
592108
592504
592877
593274
593644
594014
594391
594756
595127
595476
595849
596210
596566
596924
597265
597615
597945
598301
598647
599004
599272
599648
600020
600391
600738
601089
601408
601750
602098
602430
602783
603121
603465
603816
604178
604528
604879
605233
605586
605943
606305
606658
607026
607387
607736
608100
608450
608804
609160
609490
609833
610196
610542
610893
611234
611586
611923
612273
612607
612951
613290
613647
613987
614338
614681
615031
615380
615721
616074
616412
616673
617076
617438
617790
618133
618478
618833
619178
619513
619845
620195
620539
620897
621266
621625
621991
622363
622725
623096
623454
623825
624180
624532
624924
625288
625639
626019
626381
626752
627105
627471
627854
628235
628637
629049
629463
629894
630291
630710
631107
631504
631902
632291
632701
633077
633466
633870
634240
634632
635022
635403
635791
636154
636529
636898
637263
637633
638005
638361
638756
639123
639480
639845
640223
640600
640957
641321
641684
642047
642433
642799
643155
643527
643907
644269
644646
645028
645397
645765
646142
646539
646911
647292
647675
648043
648414
648786
649145
649509
649875
