Results for: 200.dart
========================================
Total Peaks Detected: 2834
Heart Rate: 94.36 BPM
========================================
Peak indices (2834 peaks):
724, 1642, 1642, 1883, 2103, 2332, 2536, 2536, 2785, 3027, 3302, 3515, 3739, 3976, 4201, 4417, 4647, 4881, 5135, 5383, 5607, 5822, 6089, 6321, 6549, 6751, 6751, 7077, 7289, 7289, 7448, 7900, 8105, 8395, 8610, 8610, 8725, 9171, 9419, 9712, 9964, 10198, 10438, 10675, 10902, 11133, 11362, 11617, 11858, 12160, 12393, 12393, 12723, 12933, 12933, 13053, 13523, 13767, 14102, 14361, 14595, 14904, 15119, 15119, 15411, 15628, 15628, 15930, 16196, 16438, 16696, 16917, 17165, 17368, 17368, 17666, 17896, 18202, 18418, 18698, 18941, 19182, 19433, 19606, 19916, 20133, 20431, 20676, 20954, 21147, 21147, 21392, 21607, 21607, 21874, 22092, 22389, 22648, 22882, 23123, 23349, 23604, 23858, 24099, 24342, 24596, 24825, 25104, 25344, 25629, 25825, 25825, 25993, 26388, 26634, 26919, 27139, 27139, 27476, 27683, 28019, 28231, 28231, 28560, 28780, 28780, 29109, 29345, 29345, 29664, 29898, 30125, 30287, 30597, 30823, 31128, 31355, 31355, 31616, 31826, 32096, 32317, 32317, 32600, 32807, 33100, 33368, 33638, 33909, 34160, 34409, 34661, 34945, 35234, 35532, 35885, 36121, 36446, 36662, 36995, 37212, 37212, 37557, 37828, 37828, 38128, 38353, 38636, 38839, 39131, 39352, 39485, 39784, 40201, 40406, 40689, 40921, 41165, 41382, 41732, 41959, 42278, 42542, 42782, 42782, 43033, 43243, 43517, 43759, 44064, 44293, 44569, 44792, 44792, 45062, 45278, 45570, 45804, 45804, 46086, 46303, 46609, 46836, 47085, 47353, 47576, 47576, 47858, 48079, 48374, 48710, 49017, 49275, 49554, 49835, 50113, 50386, 50660, 50928, 51198, 51462, 51707, 51956, 52201, 52485, 52784, 53064, 53301, 53541, 53789, 54038, 54290, 54556, 54825, 55071, 55330, 55605, 55846, 56082, 56323, 56572, 56818, 57097, 57376, 57619, 57858, 58097, 58353, 58609, 58879, 59142, 59398, 59650, 59905, 60164, 60404, 60648, 60884, 61148, 61437, 61707, 61948, 62183, 62426, 62673, 62922, 63182, 63445, 63633, 63848, 64209, 64426, 64616, 64616, 64937, 65149, 65442, 65669, 65989, 66202, 66202, 66479, 66675, 66955, 67185, 67185, 67472, 67696, 67998, 68224, 68514, 68733, 69037, 69243, 69533, 69796, 70101, 70342, 70619, 70829, 71087, 71291, 71577, 71860, 72111, 72355, 72614, 72838, 72838, 73126, 73338, 73601, 73821, 74095, 74316, 74597, 74854, 75085, 75320, 75518, 75785, 76060, 76334, 76584, 76841, 77101, 77347, 77563, 77857, 78082, 78082, 78375, 78599, 78599, 78949, 79168, 79168, 79452, 79690, 79936, 80175, 80440, 80723, 80971, 81204, 81460, 81692, 81963, 82174, 82174, 82429, 82648, 82648, 82648, 82765, 83181, 83398, 83398, 83669, 83910, 84126, 84352, 84596, 84846, 85099, 85319, 85548, 85792, 85983, 86231, 86474, 86695, 86927, 87161, 87341, 87666, 87884, 88137, 88357, 88573, 88802, 89038, 89284, 89550, 89785, 90010, 90229, 90464, 90705, 90940, 91174, 91409, 91663, 91899, 92140, 92384, 92613, 92836, 93034, 93288, 93539, 93819, 94080, 94080, 94080, 94293, 94518, 94738, 94967, 95196, 95441, 95441, 95677, 95911, 96153, 96355, 96639, 96855, 96855, 97075, 97292, 97512, 97735, 97984, 98234, 98472, 98695, 98908, 99124, 99361, 99593, 99833, 99999, 100291, 100530, 100749, 100981, 101213, 101418, 101650, 101861, 102084, 102353, 102594, 102827, 103033, 103240, 103453, 103659, 103880, 104129, 104336, 104567, 104788, 105016, 105252, 105468, 105682, 105894, 106086, 106263, 106529, 106772, 107016, 107237, 107454, 107658, 107868, 108095, 108322, 108568, 108780, 109015, 109246, 109458, 109684, 109915, 110123, 110336, 110544, 110544, 110759, 111001, 111260, 111480, 111702, 111903, 112103, 112308, 112510, 112735, 113005, 113005, 113207, 113207, 113304, 113435, 113639, 113872, 114095, 114323, 114523, 114721, 114931, 115175, 115175, 115175, 115378, 115614, 115840, 116074, 116263, 116465, 116465, 116663, 116897, 117122, 117350, 117350, 117581, 117807, 118019, 118243, 118445, 118658, 118883, 119098, 119326, 119539, 119786, 120049, 120254, 120472, 120675, 120879, 121099, 121326, 121547, 121799, 122043, 122270, 122485, 122698, 122944, 123162, 123162, 123391, 123614, 123839, 124078, 124323, 124574, 124788, 125014, 125014, 125224, 125444, 125685, 125925, 126168, 126411, 126644, 126858, 127080, 127311, 127311, 127543, 127763, 127763, 128009, 128239, 128490, 128741, 128984, 129216, 129418, 129638, 129872, 130089, 130340, 130585, 130843, 131076, 131286, 131505, 131505, 131755, 131990, 132236, 132469, 132705, 132931, 133097, 133420, 133652, 133879, 134112, 134337, 134599, 134884, 135130, 135363, 135584, 135821, 136035, 136273, 136521, 136762, 137015, 137245, 137481, 137726, 137951, 138174, 138394, 138626, 138870, 139124, 139381, 139638, 139880, 140106, 140333, 140585, 140803, 141084, 141243, 141572, 141803, 142045, 142260, 142260, 142535, 142777, 142969, 143197, 143197, 143636, 143828, 143988, 144409, 144592, 144927, 145204, 145485, 145760, 146012, 146269, 146441, 146758, 146968, 146968, 147217, 147440, 147713, 147953, 148219, 148476, 148711, 148930, 149157, 149408, 149648, 149900, 150128, 150373, 150613, 150850, 151097, 151346, 151595, 151846, 152117, 152400, 152663, 152923, 153152, 153341, 153615, 153858, 154261, 154496, 154801, 155043, 155313, 155538, 155823, 156027, 156027, 156317, 156555, 156555, 156840, 157058, 157324, 157552, 157778, 157984, 158294, 158529, 158529, 158813, 159025, 159271, 159484, 159754, 159923, 160252, 160515, 160721, 160917, 161382, 161591, 161903, 162160, 162418, 162691, 162970, 163237, 163488, 163721, 163922, 164223, 164446, 164732, 164947, 165246, 165470, 165470, 165751, 165970, 166244, 166489, 166730, 167002, 167285, 167556, 167743, 168032, 168254, 168500, 168714, 169009, 169229, 169386, 169729, 169912, 170276, 170529, 170756, 171001, 171267, 171532, 171814, 172056, 172343, 172547, 172547, 172858, 173098, 173098, 173436, 173680, 173680, 174032, 174257, 174599, 174820, 175151, 175391, 175699, 175959, 175959, 176301, 176574, 176800, 177034, 177274, 177513, 177775, 178046, 178308, 178308, 178308, 178526, 178764, 179026, 179259, 179497, 179741, 179993, 180258, 180484, 180484, 180767, 180998, 181260, 181462, 181722, 181954, 182273, 182510, 182787, 183035, 183261, 183508, 183743, 184006, 184244, 184524, 184768, 185051, 185268, 185501, 185740, 185975, 186212, 186480, 186772, 186984, 187278, 187435, 187828, 188045, 188045, 188367, 188590, 188880, 189231, 189522, 189813, 190082, 190338, 190621, 190942, 191237, 191507, 191773, 192039, 192300, 192568, 192853, 193126, 193382, 193645, 193921, 194170, 194420, 194662, 194919, 195179, 195469, 195754, 196002, 196247, 196487, 196757, 197028, 197301, 197543, 197795, 198045, 198289, 198537, 198795, 199039, 199289, 199566, 199868, 200130, 200383, 200626, 200865, 201098, 201360, 201652, 201919, 202182, 202438, 202610, 202961, 203184, 203462, 203692, 203692, 203982, 204217, 204517, 204773, 204773, 205012, 205217, 205217, 205478, 205724, 206015, 206256, 206514, 206734, 206734, 206979, 207196, 207457, 207685, 207685, 207887, 208194, 208452, 208732, 208950, 209214, 209422, 209651, 209871, 210162, 210408, 210408, 210705, 210922, 211175, 211394, 211668, 211885, 212177, 212440, 212660, 212906, 213204, 213424, 213717, 213941, 213941, 214196, 214444, 214781, 215062, 215325, 215540, 215807, 216010, 216010, 216301, 216614, 216614, 216810, 217117, 217117, 217289, 217462, 217896, 218129, 218380, 218630, 218878, 219158, 219413, 219682, 219896, 220010, 220135, 220194, 220327, 220327, 220327, 220638, 220879, 221177, 221406, 221406, 221665, 221884, 222151, 222395, 222639, 222870, 223131, 223380, 223652, 223912, 224156, 224380, 224617, 224851, 225105, 225383, 225661, 225895, 226161, 226393, 226681, 226893, 227016, 227196, 227615, 227886, 227886, 228229, 228426, 228744, 228978, 229208, 229465, 229740, 230010, 230245, 230481, 230720, 230937, 231171, 231402, 231666, 231925, 232156, 232408, 232655, 232891, 233123, 233351, 233351, 233554, 233784, 234033, 234281, 234431, 234779, 235014, 235219, 235449, 235697, 235947, 236195, 236421, 236662, 236894, 237122, 237356, 237586, 237813, 238023, 238257, 238514, 238768, 238900, 239233, 239456, 239671, 239886, 240120, 240358, 240613, 240857, 241079, 241303, 241538, 241772, 241983, 242196, 242436, 242686, 242920, 243161, 243401, 243615, 243615, 243851, 244058, 244278, 244528, 244528, 244779, 245022, 245262, 245490, 245721, 245930, 246134, 246353, 246607, 246854, 247081, 247337, 247586, 247812, 248044, 248248, 248454, 248683, 248903, 249143, 249413, 249648, 249873, 250084, 250307, 250543, 250766, 250978, 251221, 251461, 251706, 251920, 251920, 251920, 252149, 252388, 252607, 252830, 253036, 253265, 253505, 253787, 254031, 254251, 254469, 254687, 254874, 255129, 255390, 255629, 255870, 255870, 256095, 256328, 256328, 256575, 256816, 257051, 257270, 257494, 257716, 257716, 257974, 258238, 258238, 258491, 258719, 258944, 259151, 259388, 259622, 259908, 260180, 260414, 260627, 260879, 261101, 261346, 261570, 261570, 261831, 262072, 262324, 262569, 262843, 263074, 263074, 263301, 263502, 263502, 263763, 264003, 264262, 264535, 264778, 265013, 265238, 265481, 265731, 265976, 266207, 266460, 266721, 266892, 267213, 267448, 267705, 267944, 267944, 268168, 268397, 268704, 268953, 269237, 269445, 269714, 269919, 270188, 270426, 270734, 270997, 271244, 271506, 271761, 271978, 272207, 272440, 272686, 272925, 273188, 273457, 273691, 273924, 274142, 274380, 274641, 274903, 275168, 275423, 275672, 275902, 276144, 276395, 276634, 276878, 277095, 277387, 277679, 277926, 278191, 278426, 278641, 278890, 279159, 279432, 279714, 279971, 280216, 280474, 280678, 280989, 281229, 281484, 281758, 281986, 282255, 282510, 282739, 282960, 283167, 283434, 283721, 283966, 284191, 284191, 284438, 284649, 284896, 285112, 285388, 285604, 285898, 286153, 286416, 286674, 286915, 287122, 287360, 287577, 287836, 288080, 288379, 288607, 288868, 289076, 289316, 289551, 289669, 290072, 290306, 290306, 290562, 290803, 291037, 291271, 291506, 291725, 291955, 292203, 292442, 292718, 292718, 292960, 293173, 293173, 293399, 293623, 293836, 294071, 294071, 294307, 294561, 294561, 294809, 295034, 295256, 295492, 295729, 295950, 296172, 296397, 296631, 296874, 297120, 297375, 297375, 297375, 297598, 297819, 298025, 298233, 298465, 298743, 298977, 299228, 299443, 299657, 299875, 300088, 300308, 300543, 300758, 300987, 301210, 301449, 301692, 301914, 302136, 302347, 302347, 302538, 302754, 302966, 303220, 303220, 303220, 303441, 303667, 303883, 304097, 304280, 304496, 304726, 304954, 305163, 305377, 305594, 305835, 306019, 306231, 306451, 306652, 306856, 307052, 307263, 307497, 307742, 307960, 308180, 308376, 308565, 308766, 308957, 309169, 309397, 309626, 309856, 310067, 310271, 310489, 310716, 310920, 311134, 311326, 311534, 311761, 311974, 312207, 312436, 312647, 312853, 313047, 313241, 313456, 313694, 313922, 314164, 314372, 314581, 314803, 314997, 315211, 315426, 315659, 315857, 316076, 316298, 316539, 316780, 316991, 317209, 317406, 317602, 317819, 318032, 318272, 318523, 318758, 318983, 319183, 319387, 319610, 319832, 320053, 320281, 320503, 320720, 320941, 321165, 321380, 321604, 321807, 322021, 322218, 322449, 322725, 322955, 323179, 323394, 323605, 323813, 324020, 324233, 324467, 324703, 324933, 325156, 325382, 325612, 325842, 326055, 326265, 326474, 326691, 326915, 327157, 327389, 327633, 327846, 328065, 328265, 328485, 328735, 328946, 329209, 329438, 329438, 329661, 329889, 330101, 330323, 330562, 330790, 331022, 331250, 331502, 331765, 332002, 332211, 332422, 332633, 332872, 333093, 333337, 333601, 333838, 334046, 334268, 334491, 334736, 334959, 335194, 335426, 335671, 335923, 336146, 336391, 336628, 336836, 337075, 337297, 337529, 337798, 338072, 338315, 338554, 338778, 339009, 339229, 339472, 339739, 339989, 340243, 340457, 340608, 340960, 341174, 341428, 341650, 341878, 342124, 342375, 342375, 342622, 342871, 342871, 343084, 343296, 343512, 343762, 344019, 344273, 344523, 344747, 344996, 345219, 345452, 345682, 345682, 345928, 346149, 346149, 346404, 346653, 346935, 347153, 347153, 347408, 347592, 347847, 348067, 348328, 348567, 348842, 349069, 349320, 349527, 349773, 350002, 350002, 350256, 350460, 350724, 350978, 351209, 351281, 351436, 351436, 351692, 351916, 352156, 352364, 352364, 352623, 352906, 353181, 353442, 353660, 353884, 354111, 354344, 354344, 354584, 354843, 354843, 355093, 355323, 355603, 355841, 355841, 356117, 356367, 356605, 356829, 357071, 357365, 357604, 357604, 357948, 358156, 358421, 358635, 358910, 359186, 359466, 359714, 359948, 360164, 360400, 360642, 360888, 361108, 361108, 361223, 361612, 361853, 362144, 362370, 362596, 362798, 363044, 363261, 363531, 363778, 364071, 364291, 364291, 364528, 364738, 365004, 365238, 365238, 365502, 365719, 365988, 366231, 366479, 366700, 366963, 367176, 367406, 367612, 367906, 368157, 368450, 368670, 368921, 369136, 369368, 369590, 369877, 370116, 370401, 370619, 370897, 371141, 371401, 371616, 371616, 371884, 372113, 372405, 372647, 372929, 373164, 373271, 373707, 373900, 374354, 374586, 374917, 375169, 375413, 375663, 375884, 376161, 376432, 376681, 376953, 377244, 377495, 377743, 377981, 378235, 378495, 378789, 379038, 379324, 379704, 379931, 380296, 380519, 380916, 381154, 381154, 381527, 381717, 382089, 382336, 382336, 382621, 382836, 383169, 383489, 383762, 383982, 384246, 384474, 384474, 384750, 384977, 385315, 385553, 385686, 386083, 386327, 386610, 386842, 386842, 387115, 387346, 387637, 387881, 387881, 388176, 388397, 388397, 388661, 388865, 389161, 389423, 389742, 389969, 390260, 390491, 390764, 390978, 391286, 391519, 391519, 391830, 392063, 392399, 392633, 392633, 392633, 392926, 393137, 393433, 393693, 393997, 394274, 394572, 394793, 394793, 394915, 395353, 395590, 395590, 395931, 396166, 396166, 396323, 396610, 396905, 397121, 397522, 397748, 398083, 398312, 398680, 398680, 399039, 399255, 399255, 399576, 399785, 400144, 400405, 400772, 401022, 401310, 401590, 401840, 402063, 402349, 402593, 402721, 403150, 403391, 403660, 403873, 404125, 404369, 404686, 404924, 405217, 405462, 405703, 405703, 405930, 406164, 406164, 406429, 406655, 406897, 407072, 407451, 407686, 407974, 408183, 408321, 408524, 408952, 409192, 409509, 409734, 409997, 410212, 410501, 410722, 411031, 411263, 411263, 411549, 411772, 412043, 412272, 412272, 412272, 412540, 412757, 412757, 413028, 413277, 413609, 413841, 413980, 414363, 414574, 414574, 414844, 415106, 415384, 415656, 415895, 416154, 416413, 416681, 416928, 416928, 417133, 417382, 417498, 417974, 418208, 418208, 418569, 418820, 418820, 418820, 419059, 419318, 419318, 419608, 419895, 420173, 420173, 420417, 420651, 420651, 420651, 420900, 421119, 421119, 421392, 421636, 421932, 422158, 422463, 422711, 422877, 423247, 423464, 423745, 423980, 424281, 424532, 424826, 425054, 425301, 425518, 425518, 425830, 426078, 426213, 426626, 426856, 427125, 427363, 427363, 427634, 427840, 427840, 428096, 428326, 428326, 428620, 428889, 428889, 429170, 429389, 429612, 429826, 430116, 430360, 430684, 430917, 431198, 431419, 431556, 431944, 432176, 432176, 432420, 432653, 432914, 433149, 433149, 433451, 433689, 433951, 434174, 434174, 434427, 434673, 434992, 435260, 435525, 435746, 436006, 436227, 436481, 436731, 436998, 437192, 437498, 437750, 438003, 438236, 438464, 438680, 438680, 438940, 439173, 439456, 439715, 439987, 440211, 440451, 440678, 440678, 440943, 441184, 441478, 441712, 442007, 442237, 442472, 442712, 442992, 443215, 443466, 443720, 444040, 444278, 444527, 444746, 444989, 445199, 445474, 445733, 446007, 446248, 446499, 446724, 446988, 447208, 447477, 447699, 447969, 448199, 448199, 448465, 448702, 448953, 449175, 449401, 449624, 449918, 450179, 450457, 450673, 450900, 451136, 451390, 451613, 451613, 451613, 451887, 452071, 452384, 452609, 452609, 452888, 453126, 453380, 453576, 453827, 454065, 454301, 454545, 454545, 454878, 455095, 455367, 455573, 455868, 456104, 456405, 456640, 456640, 456926, 457164, 457164, 457425, 457651, 457936, 458159, 458406, 458641, 458641, 458994, 459245, 459549, 459753, 459753, 459991, 460219, 460342, 460794, 461004, 461358, 461624, 461879, 462149, 462394, 462592, 462882, 463128, 463398, 463638, 463786, 464137, 464357, 464589, 464820, 464820, 464820, 465101, 465347, 465629, 465850, 466081, 466309, 466533, 466763, 467030, 467268, 467268, 467530, 467759, 468020, 468265, 468517, 468737, 468737, 468971, 469196, 469453, 469715, 470009, 470231, 470486, 470689, 470925, 471168, 471457, 471714, 471714, 471975, 472199, 472455, 472684, 472930, 473154, 473412, 473638, 473638, 473907, 474167, 474421, 474659, 474935, 475141, 475436, 475708, 475987, 476277, 476542, 476742, 477005, 477282, 477550, 477791, 478069, 478311, 478311, 478556, 478798, 479118, 479333, 479333, 479614, 479836, 479987, 480410, 480682, 480986, 481235, 481235, 481476, 481691, 481691, 481976, 482228, 482228, 482228, 482484, 482733, 483087, 483320, 483633, 483862, 484113, 484336, 484606, 484859, 485147, 485379, 485628, 485828, 486099, 486339, 486629, 486878, 487123, 487353, 487629, 487853, 488121, 488364, 488581, 488845, 489100, 489379, 489641, 489892, 490097, 490336, 490581, 490843, 491089, 491365, 491597, 491876, 492096, 492382, 492610, 492610, 492874, 493100, 493364, 493605, 493849, 494081, 494347, 494564, 494779, 495000, 495000, 495285, 495538, 495538, 495814, 496040, 496275, 496490, 496724, 496962, 497220, 497460, 497460, 497739, 497971, 498088, 498474, 498691, 498951, 499167, 499167, 499400, 499636, 499921, 500178, 500447, 500664, 500905, 501119, 501344, 501607, 501931, 502176, 502434, 502673, 502891, 503118, 503383, 503609, 503881, 504109, 504109, 504375, 504643, 504901, 505128, 505128, 505336, 505553, 505825, 506068, 506352, 506615, 506856, 507073, 507073, 507308, 507540, 507540, 507685, 508041, 508272, 508536, 508787, 509010, 509195, 509493, 509719, 509950, 510164, 510407, 510687, 510948, 511200, 511415, 511630, 511859, 512051, 512243, 512573, 512807, 512807, 512807, 513068, 513287, 513287, 513525, 513771, 514024, 514242, 514483, 514714, 514970, 515211, 515211, 515474, 515714, 515937, 516141, 516141, 516369, 516616, 516895, 517142, 517142, 517405, 517645, 517888, 518090, 518343, 518583, 518840, 519085, 519085, 519341, 519591, 519868, 520095, 520095, 520347, 520562, 520788, 521020, 521300, 521559, 521850, 522070, 522070, 522312, 522529, 522529, 522793, 523030, 523030, 523310, 523550, 523817, 524054, 524054, 524290, 524520, 524796, 525011, 525265, 525492, 525766, 526030, 526299, 526518, 526742, 526959, 527196, 527431, 527431, 527695, 527954, 528216, 528430, 528679, 528925, 529158, 529388, 529388, 529618, 529860, 529860, 530111, 530335, 530335, 530335, 530596, 530839, 531068, 531281, 531281, 531498, 531732, 531732, 532005, 532250, 532525, 532746, 532902, 533196, 533427, 533677, 533912, 534157, 534390, 534626, 534895, 535151, 535386, 535601, 535833, 536076, 536317, 536584, 536857, 537062, 537320, 537528, 537810, 538043, 538043, 538191, 538429, 538841, 539081, 539327, 539555, 539818, 540045, 540293, 540506, 540506, 540779, 541048, 541325, 541558, 541558, 541797, 542009, 542009, 542266, 542476, 542769, 543069, 543338, 543586, 543796, 544064, 544338, 544602, 544844, 545106, 545330, 545655, 545889, 546238, 546448, 546735, 547020, 547317, 547594, 547846, 548094, 548299, 548531, 548878, 549155, 549280, 549743, 549927, 550324, 550592, 550753, 551104, 551335, 551665, 551954, 552162, 552472, 552684, 552932, 553171, 553316, 553733, 553962, 554238, 554474, 554709, 554931, 555245, 555458, 555740, 555986, 555986, 556309, 556557, 556844, 557047, 557304, 557536, 557855, 558099, 558428, 558675, 558900, 559178, 559428, 559696, 559936, 560226, 560496, 560725, 561077, 561312, 561312, 561636, 561852, 562183, 562526, 562836, 563116, 563377, 563648, 563903, 564174, 564477, 564766, 565030, 565291, 565517, 565876, 566102, 566429, 566669, 567029, 567301, 567604, 567852, 567943, 568395, 568672, 568949, 569252, 569506, 569759, 569993, 570239, 570500, 570754, 570965, 571239, 571486, 571790, 572013, 572013, 572261, 572483, 572746, 572987, 572987, 573266, 573524, 573524, 573868, 574068, 574068, 574384, 574617, 574617, 574943, 575224, 575499, 575786, 576035, 576290, 576549, 576783, 577017, 577229, 577536, 577819, 577819, 577819, 578212, 578416, 578416, 578740, 578946, 578946, 579265, 579563, 579835, 580105, 580357, 580627, 580855, 581133, 581406, 581680, 581958, 582246, 582532, 582734, 583083, 583290, 583665, 583914, 584304, 584584, 584767, 585106, 585359, 585677, 585969, 586253, 586526, 586764, 586960, 587349, 587547, 587837, 588066, 588066, 588385, 588647, 588647, 588917, 589185, 589412, 589660, 589902, 590185, 590458, 590722, 590947, 591297, 591532, 591532, 591858, 592071, 592396, 592635, 593004, 593289, 593544, 593763, 594014, 594248, 594511, 594797, 595040, 595325, 595554, 595796, 596062, 596307, 596532, 596882, 597134, 597480, 597711, 598041, 598292, 598292, 598560, 598863, 599192, 599492, 599713, 599993, 600228, 600228, 600453, 600681, 601064, 601301, 601668, 601954, 602240, 602452, 602727, 602964, 603346, 603577, 603938, 604225, 604401, 604574, 604961, 605227, 605227, 605559, 605874, 606139, 606363, 606655, 606893, 607289, 607519, 607519, 607873, 608176, 608473, 608732, 608970, 609169, 609511, 609747, 610115, 610348, 610685, 610944, 611224, 611508, 611799, 612078, 612363, 612637, 612904, 613161, 613403, 613651, 613890, 614115, 614421, 614687, 615032, 615242, 615546, 615799, 616033, 616352, 616632, 616814, 617128, 617395, 617647, 617907, 618242, 618633, 618890, 619182, 619439, 619675, 619886, 620139, 620421, 620693, 620982, 621197, 621475, 621731, 621994, 622258, 622523, 622750, 623102, 623349, 623709, 623931, 624236, 624503, 624777, 625017, 625359, 625611, 625941, 626142, 626473, 626717, 627067, 627352, 627627, 627859, 628159, 628406, 628679, 628914, 629172, 629417, 629775, 630008, 630289, 630498, 630498, 630762, 630983, 630983, 631270, 631559, 631804, 632070, 632306, 632556, 632817, 633053, 633315, 633586, 633872, 634140, 634371, 634734, 634954, 635279, 635585, 635908, 636212, 636480, 636700, 636996, 637227, 637548, 637786, 638126, 638382, 638678, 638954, 639202, 639435, 639680, 639922, 640213, 640501, 640501, 640808, 641027, 641292, 641508, 641836, 642118, 642118, 642422, 642691, 642946, 643199, 643457, 643712, 643960, 644209, 644467, 644744, 645027, 645278, 645523, 645744, 645988, 646241, 646510, 646799, 647075, 647320, 647546, 647757, 648090, 648357, 648629, 648900, 649162, 649408, 649665, 649928
