Results for: 203.dart
========================================
Total Peaks Detected: 3050
Heart Rate: 101.53 BPM
========================================
Peak indices (3050 peaks):
742, 1352, 1480, 1480, 1716, 1874, 2100, 2268, 2421, 2519, 2660, 2793, 2932, 3124, 3329, 3462, 3710, 3991, 4235, 4525, 4721, 4857, 5079, 5244, 5431, 5647, 5791, 6028, 6197, 6431, 6708, 6941, 7275, 7586, 7750, 7881, 8149, 8310, 8538, 8872, 9110, 9290, 9431, 9668, 9948, 10165, 10494, 10826, 11078, 11338, 11650, 11855, 12016, 12273, 12524, 12753, 12988, 13194, 13537, 13774, 14013, 14286, 14586, 14784, 14923, 15238, 15431, 15627, 15928, 16085, 16306, 16595, 16779, 16886, 17012, 17274, 17460, 17646, 18433, 18641, 18911, 19112, 19258, 19392, 19738, 19912, 20100, 20295, 20453, 20581, 20708, 20895, 21032, 21155, 21278, 21407, 21703, 21879, 21985, 22139, 22386, 22513, 22649, 22767, 22883, 23263, 23442, 23442, 23442, 23640, 23784, 24070, 24225, 24361, 24489, 24724, 24883, 25001, 25298, 25672, 26000, 26297, 26589, 26818, 26973, 27218, 27518, 27825, 28214, 28449, 28634, 28859, 29022, 29338, 29517, 29782, 30059, 30279, 30591, 30761, 31005, 31246, 31578, 31847, 32008, 32239, 32513, 32727, 32985, 33157, 33404, 33404, 33760, 33939, 33939, 33939, 34283, 34454, 34581, 34722, 34986, 35168, 35284, 35529, 35674, 35791, 35930, 36079, 36295, 36494, 36553, 36917, 37060, 37292, 37539, 37768, 37916, 38029, 38149, 38394, 38634, 38868, 39022, 39141, 39271, 39469, 39791, 39924, 40041, 40258, 40400, 40704, 40885, 40885, 40885, 41242, 41413, 41659, 41811, 42127, 42436, 42659, 42913, 43065, 43400, 43568, 43841, 43987, 44223, 44457, 44624, 44756, 44884, 45032, 45163, 45288, 45566, 45758, 45758, 45995, 46146, 46146, 46335, 46470, 46732, 46887, 47061, 47234, 47359, 47594, 48027, 48223, 48223, 48401, 48738, 49060, 49207, 49418, 49568, 49699, 49938, 50119, 50449, 50744, 51054, 51205, 51319, 51653, 51906, 52178, 52477, 52933, 53169, 53354, 53746, 54130, 54329, 54473, 54743, 54922, 55139, 55420, 55669, 55809, 55978, 56230, 56386, 56572, 56843, 57034, 57034, 57034, 57269, 57524, 57796, 58086, 58344, 58576, 58817, 59053, 59365, 59631, 59896, 60104, 60417, 60609, 60808, 60965, 61210, 61493, 61690, 61906, 62116, 62280, 62510, 62786, 63071, 63256, 63543, 63745, 63889, 64009, 64132, 64352, 64605, 64853, 65065, 65340, 65610, 65876, 66043, 66208, 66460, 66691, 66885, 67058, 67206, 67491, 67778, 67951, 68102, 68381, 68624, 68870, 69150, 69403, 69631, 69887, 70088, 70258, 70525, 70741, 70993, 71167, 71392, 71617, 71922, 72090, 72357, 72517, 72757, 72957, 73170, 73391, 73650, 73824, 74046, 74209, 74412, 74766, 74922, 75151, 75478, 75749, 75948, 76108, 76256, 76505, 76703, 76988, 77148, 77262, 77562, 77762, 78108, 78302, 78302, 78302, 78553, 78817, 79282, 79475, 79475, 79797, 80069, 80302, 80455, 80573, 80997, 81166, 81166, 81166, 81383, 81640, 81867, 82126, 82391, 82669, 82972, 83170, 83355, 83686, 83886, 84049, 84292, 84563, 84815, 85108, 85317, 85452, 85592, 85834, 86051, 86292, 86488, 86808, 87090, 87321, 87611, 87866, 88126, 88377, 88534, 88784, 89006, 89237, 89491, 89491, 89491, 89660, 89789, 89929, 90073, 90304, 90512, 90782, 91081, 91385, 91626, 91905, 91905, 92115, 92275, 92633, 92819, 92819, 93189, 93429, 93664, 93956, 94248, 94248, 94462, 94669, 94988, 95282, 95636, 95812, 96256, 96447, 96447, 96447, 96447, 96746, 96904, 97075, 97200, 97394, 97637, 97927, 98148, 98408, 98695, 98850, 98978, 99112, 99245, 99660, 99852, 99852, 100164, 100333, 100692, 101117, 101310, 101310, 101519, 101772, 102044, 102305, 102626, 102851, 103105, 103510, 103678, 103806, 104016, 104200, 104518, 104701, 105100, 105288, 105288, 105582, 105821, 106008, 106258, 106483, 106647, 106870, 107101, 107383, 107650, 107838, 107973, 108206, 108472, 108766, 108766, 108886, 108886, 108999, 109110, 109375, 109474, 109773, 109773, 109913, 110040, 110149, 110310, 110450, 110806, 110990, 111220, 111383, 111518, 111741, 112137, 112409, 112748, 112935, 113255, 113445, 113684, 113846, 114098, 114349, 114603, 114763, 115034, 115297, 115471, 115741, 116009, 116282, 116584, 116584, 116584, 116730, 117007, 117278, 117521, 117734, 117866, 118011, 118232, 118377, 118538, 118763, 119038, 119296, 119642, 119917, 120182, 120360, 120608, 120855, 121023, 121268, 121545, 121713, 121844, 122076, 122389, 122689, 123038, 123224, 123224, 123458, 123621, 123756, 123893, 124025, 124264, 124444, 124681, 125013, 125211, 125354, 125731, 125909, 126166, 126395, 126602, 126908, 127073, 127234, 127412, 127646, 127965, 128191, 128481, 128721, 128982, 129097, 129217, 129460, 129630, 129850, 130251, 130498, 130854, 131104, 131341, 131754, 132028, 132361, 132643, 132966, 133203, 133554, 133847, 134071, 134403, 134624, 134816, 135057, 135292, 135611, 135779, 135959, 136299, 136492, 136492, 136492, 136676, 137044, 137223, 137352, 137471, 137697, 137853, 138003, 138241, 138385, 138503, 138771, 139041, 139437, 139636, 139807, 140035, 140288, 140570, 140883, 141164, 141483, 141701, 141769, 142022, 142307, 142527, 142799, 143053, 143231, 143448, 143600, 143847, 144122, 144312, 144537, 144699, 144926, 145111, 145317, 145524, 145654, 145773, 145913, 146047, 146291, 146439, 146756, 147020, 147265, 147494, 147749, 148039, 148130, 148130, 148438, 148610, 148770, 148914, 149174, 149375, 149375, 149571, 149851, 150173, 150380, 150560, 150697, 150956, 151207, 151460, 151800, 152136, 152323, 152528, 152772, 153035, 153322, 153619, 153619, 153854, 154119, 154289, 154615, 154862, 155012, 155260, 155486, 155877, 156094, 156440, 156706, 156947, 157204, 157361, 157716, 157919, 157919, 157919, 158100, 158355, 158605, 158863, 159143, 159143, 159453, 159639, 159639, 159860, 160198, 160406, 160681, 160894, 161020, 161190, 161367, 161367, 161595, 161755, 161885, 162032, 162310, 162530, 162925, 163110, 163110, 163110, 163331, 163486, 163696, 164024, 164218, 164467, 164709, 164942, 165135, 165275, 165556, 165747, 165930, 166226, 166531, 166896, 167076, 167422, 167742, 168009, 168182, 168321, 168627, 168902, 168902, 169007, 169149, 169289, 169423, 169553, 169803, 169971, 170228, 170427, 170632, 170768, 170892, 171171, 171370, 171370, 171370, 171370, 171370, 171639, 171810, 171963, 172160, 172460, 172661, 172794, 172949, 173081, 173233, 173563, 173730, 173730, 173848, 174091, 174343, 174608, 174871, 175027, 175218, 175521, 175726, 175980, 176220, 176449, 176773, 177025, 177251, 177413, 177672, 177878, 178031, 178277, 178429, 178549, 178799, 178980, 179233, 179398, 179526, 179667, 179804, 180047, 180228, 180366, 180574, 180850, 181032, 181158, 181300, 181525, 181762, 182110, 182289, 182607, 182878, 183128, 183284, 183402, 183536, 183838, 184013, 184276, 184390, 184697, 184874, 184874, 185058, 185330, 185654, 185843, 186126, 186539, 186718, 186961, 187155, 187421, 187594, 187850, 188153, 188437, 188893, 189284, 189466, 189723, 189908, 190011, 190011, 190273, 190586, 190825, 191081, 191300, 191441, 191591, 192005, 192130, 192304, 192491, 192687, 192687, 192762, 192922, 193083, 193085, 193304, 193491, 193616, 193885, 194113, 194259, 194403, 194536, 194667, 194872, 195146, 195299, 195551, 195795, 195987, 196058, 196193, 196421, 196567, 196695, 196980, 197152, 197152, 197359, 197623, 197873, 198012, 198152, 198282, 198523, 198812, 198812, 199019, 199161, 200016, 200253, 200516, 200773, 200972, 201181, 201449, 201654, 201833, 202004, 202309, 202508, 202717, 202873, 203012, 203210, 203402, 203619, 203840, 204029, 204198, 204447, 204607, 204757, 205030, 205264, 205514, 205745, 206004, 206160, 206399, 206602, 206764, 206934, 207174, 207343, 207486, 207786, 207983, 208195, 208545, 208804, 209035, 209278, 209506, 209676, 209924, 210163, 210848, 211203, 211374, 211711, 211906, 212196, 212391, 212612, 212752, 212873, 213179, 213356, 213605, 213780, 213901, 214146, 214443, 214710, 214947, 215260, 215427, 215643, 215933, 216031, 216171, 216428, 216653, 216795, 216993, 217141, 217141, 217273, 217474, 217723, 217954, 218192, 218417, 218583, 218817, 218977, 219199, 219450, 219615, 219860, 220110, 220370, 220610, 221019, 221019, 221208, 221426, 221588, 221804, 222072, 222245, 222505, 222776, 222934, 223063, 223063, 223250, 223250, 223339, 223423, 223514, 223517, 223694, 223888, 224087, 224335, 224550, 224984, 225212, 225635, 225814, 226140, 226383, 226532, 226642, 226787, 226918, 227189, 227378, 227536, 227817, 227969, 228192, 228337, 228557, 228831, 229092, 229251, 229438, 229586, 229828, 230053, 230225, 230342, 230491, 230743, 230899, 231017, 231139, 231276, 231474, 231672, 231996, 232200, 232325, 232484, 232798, 232953, 233195, 233428, 233644, 233799, 234038, 234194, 234301, 234433, 234691, 234862, 234862, 234862, 235110, 235302, 235554, 235802, 236094, 236387, 236704, 236987, 237257, 237451, 237658, 237896, 238186, 238384, 238523, 238758, 239046, 239281, 239460, 239662, 239931, 240190, 240358, 240519, 240753, 241166, 241399, 241687, 241947, 242262, 242630, 242896, 243171, 243420, 243616, 243755, 243884, 244128, 244311, 244623, 244894, 245114, 245353, 245607, 245770, 246065, 246277, 246440, 246664, 246818, 247019, 247233, 247490, 247645, 247910, 248129, 248276, 248424, 248733, 248984, 249123, 249358, 249501, 249734, 249956, 250188, 250357, 250514, 250705, 250853, 250987, 251168, 251324, 251465, 251674, 251821, 251990, 252238, 252432, 252579, 252712, 252950, 253142, 253142, 253295, 253494, 253750, 253981, 254116, 254250, 254513, 254844, 255029, 255265, 255528, 255672, 255793, 255914, 256092, 256332, 256626, 256795, 257033, 257191, 257436, 257597, 257866, 258138, 258142, 258306, 258516, 258669, 258871, 259020, 259020, 259020, 259284, 259496, 259701, 259846, 260037, 260234, 260401, 260588, 260846, 260999, 261213, 261366, 261503, 261748, 262058, 262310, 262462, 262673, 262825, 263041, 263248, 263518, 263741, 263989, 264141, 264383, 264575, 264794, 264986, 265141, 265273, 265402, 265580, 265850, 266096, 266326, 266547, 266808, 267054, 267056, 267293, 267522, 267673, 267908, 268119, 268380, 268530, 268835, 269091, 269234, 269453, 269453, 269678, 269882, 270056, 270280, 270471, 270674, 270813, 270923, 271112, 271371, 271514, 271623, 271857, 272009, 272211, 272512, 272787, 272948, 272948, 273076, 273188, 273334, 273531, 273705, 273952, 274097, 274312, 274570, 274790, 274847, 275062, 275228, 275373, 275487, 275601, 275752, 275874, 276150, 276328, 276328, 276493, 276673, 276888, 277053, 277245, 277452, 277673, 277885, 278025, 278138, 278272, 278499, 278738, 278882, 279004, 279285, 279429, 279735, 279909, 280133, 280406, 280639, 280933, 281115, 281368, 281648, 281763, 281968, 282199, 282373, 282507, 282658, 282822, 283068, 283236, 283458, 283614, 283730, 283865, 284108, 284331, 284598, 284861, 285007, 285134, 285314, 285489, 285624, 285752, 285957, 286104, 286308, 286551, 286688, 286798, 287007, 287156, 287482, 287817, 287977, 288102, 288304, 288474, 288740, 288960, 289079, 289353, 289510, 289710, 289998, 290142, 290378, 290555, 290724, 291049, 291203, 291440, 291746, 291958, 292138, 292456, 292631, 292754, 292860, 293004, 293279, 293435, 293606, 293936, 294075, 294199, 294537, 294692, 294920, 295134, 295401, 295547, 295735, 295988, 296167, 296307, 296432, 296556, 296839, 296985, 297094, 297230, 297446, 297654, 297917, 298174, 298413, 298559, 298682, 298799, 298799, 299045, 299290, 299457, 299616, 299829, 300119, 300275, 300497, 300760, 300969, 301133, 301354, 301497, 301626, 301746, 301746, 301894, 302145, 302145, 302289, 302430, 302652, 302804, 303167, 303342, 303342, 303342, 303342, 303522, 303737, 303867, 304027, 304226, 304293, 304494, 304699, 304839, 305020, 305156, 305380, 305735, 305984, 306272, 306612, 306853, 307027, 307098, 307297, 307450, 307450, 307450, 307749, 308083, 308083, 308413, 308583, 308814, 309133, 309469, 309836, 309994, 310255, 310486, 310747, 311051, 311297, 311532, 311817, 312025, 312234, 312426, 312619, 312893, 313048, 313160, 313277, 313277, 313410, 313613, 313894, 314118, 314275, 314406, 314520, 314642, 314827, 315084, 315321, 315478, 315690, 315901, 316037, 316151, 316260, 316478, 316647, 316846, 317074, 317219, 317479, 317724, 317879, 318011, 318170, 318414, 318672, 318672, 318832, 318832, 318891, 319005, 319221, 319440, 319663, 319808, 320067, 320294, 320429, 320774, 320937, 320937, 321094, 321220, 321420, 321664, 321891, 322033, 322166, 322303, 322444, 322578, 322900, 323062, 323062, 323062, 323235, 323414, 323579, 323753, 323896, 324012, 324272, 324535, 324700, 324834, 325043, 325281, 325433, 325433, 325536, 325671, 325971, 326235, 326387, 326572, 326726, 326987, 327173, 327407, 327639, 327792, 327939, 328160, 328358, 328670, 328913, 329167, 329292, 329577, 329577, 329729, 329729, 329845, 330007, 330124, 330469, 330692, 330969, 331217, 331410, 331592, 331771, 331902, 332115, 332353, 332623, 332781, 332781, 332900, 333027, 333166, 333364, 333663, 333807, 333928, 334190, 334455, 334724, 334877, 335145, 335403, 335565, 335738, 335993, 336179, 336307, 336540, 336726, 336915, 337172, 337464, 337685, 337953, 338299, 338520, 338719, 338982, 339348, 339589, 339893, 340050, 340050, 340175, 340296, 340409, 340626, 340805, 340805, 340805, 341067, 341408, 341692, 341991, 342281, 342496, 342725, 342880, 343116, 343312, 343614, 343889, 344105, 344245, 344370, 344508, 344737, 344902, 345131, 345490, 345779, 345965, 346265, 346539, 346883, 347096, 347245, 347370, 347498, 347639, 347925, 348111, 348111, 348111, 348306, 348448, 348713, 348912, 349129, 349360, 349648, 349880, 350186, 350411, 350556, 350666, 350910, 351081, 351081, 351081, 351265, 351506, 351868, 352167, 352364, 352700, 353013, 353312, 353511, 353785, 354093, 354376, 354628, 354884, 355198, 355471, 355699, 355832, 356138, 356313, 356468, 356682, 356952, 357325, 357754, 357926, 358359, 358590, 358731, 358867, 359199, 359389, 359389, 359679, 359930, 360315, 360555, 360691, 361027, 361318, 361666, 361892, 362120, 362379, 362546, 362775, 363013, 363288, 363433, 363580, 363726, 363841, 363968, 364159, 364349, 364501, 364743, 364923, 365202, 365402, 365742, 365917, 366237, 366468, 366678, 367034, 367318, 367458, 367583, 367745, 367989, 368159, 368334, 368490, 368832, 369006, 369215, 369471, 369705, 369921, 370184, 370410, 370759, 370904, 371146, 371328, 371569, 371777, 371933, 372068, 372298, 372458, 372458, 372792, 372971, 372971, 373115, 373281, 373646, 373836, 373973, 373973, 374110, 374246, 374610, 374777, 374777, 375143, 375533, 375801, 376040, 376375, 376624, 376944, 377214, 377560, 377825, 378060, 378438, 378629, 378754, 378974, 379200, 379450, 379595, 379826, 380080, 380330, 380479, 380909, 381076, 381334, 381586, 381808, 381960, 382247, 382551, 382870, 383279, 383463, 383596, 383826, 383988, 384315, 384509, 384509, 384509, 384748, 385054, 385219, 385338, 385563, 385946, 386111, 386334, 386600, 386877, 387041, 387195, 387327, 387443, 387694, 388145, 388316, 388582, 388912, 389289, 389679, 389936, 390159, 390442, 390789, 390980, 390980, 390980, 391334, 391653, 391995, 392183, 392372, 392761, 392999, 393269, 393434, 393729, 393902, 394136, 394370, 394509, 394702, 394979, 395182, 395445, 395787, 396026, 396308, 396528, 396819, 396976, 397148, 397326, 397641, 397965, 398307, 398481, 398782, 399026, 399316, 399589, 399872, 400042, 400334, 400526, 400716, 400907, 401038, 401233, 401536, 401797, 402058, 402272, 402659, 402984, 403178, 403309, 403453, 403674, 403941, 404076, 404348, 404599, 404827, 404971, 405241, 405524, 405524, 405767, 405955, 406103, 406472, 406661, 406661, 406661, 406930, 407195, 407421, 407507, 407653, 407731, 407961, 408262, 408485, 408673, 408882, 409133, 409253, 409394, 409770, 409939, 409939, 410066, 410187, 410455, 410640, 410640, 410955, 411145, 411329, 411564, 411858, 412129, 412516, 412786, 412933, 413250, 413532, 413532, 413916, 414086, 414086, 414086, 414086, 414566, 414756, 414941, 415108, 415240, 415354, 415527, 415801, 415982, 415982, 416140, 416337, 416469, 416629, 416889, 417040, 417376, 417681, 417881, 418300, 418473, 418473, 418473, 418639, 418786, 418963, 419397, 419397, 419397, 419647, 419876, 419876, 420020, 420274, 420479, 420699, 421011, 421184, 421315, 421626, 421880, 422132, 422391, 422743, 422972, 423285, 423452, 423716, 424076, 424343, 424582, 424739, 424925, 425226, 425598, 425793, 426008, 426157, 426277, 426416, 426689, 426868, 427177, 427443, 427691, 427906, 428126, 428274, 428401, 428546, 428677, 428840, 429034, 429312, 429601, 429846, 430035, 430351, 430625, 430774, 431084, 431298, 431445, 431573, 431841, 432011, 432327, 432627, 432888, 433038, 433186, 433292, 433515, 433781, 433968, 434181, 434348, 434556, 434802, 435080, 435276, 435504, 435774, 435987, 436251, 436600, 436773, 436902, 437104, 437343, 437611, 437760, 437892, 438027, 438166, 438430, 438625, 438625, 438625, 438797, 439046, 439232, 439368, 439703, 439883, 439883, 439883, 440085, 440340, 440646, 440885, 441102, 441419, 441719, 441994, 442188, 442474, 442812, 443104, 443409, 443565, 443696, 444043, 444216, 444216, 444350, 444521, 444782, 445198, 445620, 445913, 446211, 446476, 446730, 446993, 447179, 447325, 447461, 447861, 448044, 448044, 448367, 448589, 448939, 449213, 449367, 449668, 449981, 450253, 450515, 450796, 451081, 451231, 451360, 451608, 451776, 452039, 452373, 452615, 452757, 453118, 453318, 453595, 453832, 454067, 454479, 454844, 455037, 455162, 455386, 455616, 455830, 455989, 456275, 456489, 456734, 457115, 457115, 457220, 457352, 457466, 457723, 457945, 458004, 458176, 458341, 458468, 458579, 458703, 458847, 459059, 459224, 459428, 459689, 459854, 460075, 460243, 460423, 460576, 460834, 461088, 461388, 461691, 461872, 462019, 462151, 462278, 462433, 462659, 462899, 463038, 463165, 463355, 463795, 463975, 463975, 464159, 464364, 464676, 464933, 465185, 465455, 465616, 465960, 466129, 466447, 466765, 467091, 467430, 467634, 467929, 468077, 468398, 468730, 469005, 469254, 469533, 469784, 470045, 470212, 470500, 470675, 470798, 470942, 471287, 471477, 471477, 471796, 471953, 472166, 472521, 472795, 473157, 473428, 473643, 473784, 474000, 474380, 474800, 475044, 475353, 475589, 475826, 476211, 476453, 476905, 477264, 477557, 477718, 477892, 478196, 478371, 478640, 479023, 479368, 479670, 479950, 480195, 480450, 480596, 480897, 481141, 481441, 481695, 481900, 482049, 482181, 482412, 482597, 482864, 483122, 483318, 483501, 483648, 483861, 484157, 484360, 484495, 484629, 484859, 485210, 485378, 485661, 485903, 486180, 486347, 486665, 486958, 487183, 487415, 487703, 487963, 488314, 488501, 488841, 489016, 489293, 489471, 489688, 489863, 490084, 490296, 490445, 490730, 490902, 491130, 491392, 491666, 491990, 492242, 492527, 492742, 493014, 493252, 493526, 493680, 493921, 494323, 494620, 494851, 495165, 495385, 495681, 495911, 496203, 496475, 496725, 497065, 497268, 497450, 497725, 497965, 498162, 498408, 498612, 498863, 499130, 499365, 499683, 499855, 500094, 500299, 500467, 500717, 501032, 501330, 501522, 501617, 501820, 502050, 502249, 502519, 502830, 503053, 503261, 503468, 503765, 504014, 504315, 504533, 504709, 504953, 505163, 505381, 505530, 505674, 505840, 506057, 506316, 506530, 506671, 506810, 507081, 507238, 507464, 507701, 507860, 507860, 508074, 508333, 508610, 508755, 508992, 509140, 509245, 509360, 509696, 509878, 509878, 510095, 510262, 510495, 510708, 510845, 511108, 511277, 511402, 511653, 511816, 511991, 512214, 512372, 512525, 512748, 512979, 513268, 513419, 513662, 513813, 514033, 514033, 514140, 514404, 514658, 514828, 515079, 515291, 515591, 515909, 516208, 516442, 516732, 517062, 517220, 517491, 517668, 517883, 518078, 518299, 518454, 518589, 518833, 518987, 519181, 519399, 519616, 519865, 520029, 520188, 520319, 520557, 520850, 521105, 521291, 521517, 521764, 521909, 522216, 522435, 522556, 522556, 522754, 522914, 523245, 523505, 523763, 524056, 524373, 524621, 524774, 525085, 525278, 525379, 525601, 525903, 526099, 526302, 526446, 526559, 526813, 527091, 527424, 527825, 528074, 528482, 528834, 529014, 529281, 529610, 529842, 529985, 530198, 530491, 530730, 530881, 531022, 531154, 531385, 531615, 531984, 532193, 532418, 532665, 532859, 533183, 533480, 533898, 534207, 534418, 534655, 534979, 535178, 535342, 535457, 535590, 535889, 537087, 537320, 537320, 537493, 537657, 537997, 538227, 538559, 538789, 539045, 539047, 539193, 539371, 539536, 539832, 540038, 540038, 540393, 540739, 540919, 541095, 541250, 541467, 541743, 542029, 542617, 542785, 543030, 543268, 543561, 544027, 544304, 544535, 544686, 544943, 545204, 545497, 545752, 545901, 546032, 546172, 546377, 546537, 546826, 547005, 547160, 547402, 547555, 547930, 548111, 548111, 548111, 548525, 548944, 549145, 549353, 549576, 549720, 549844, 550003, 550256, 550492, 550724, 551272, 551434, 551748, 551972, 552477, 552642, 552800, 552970, 553239, 553501, 553719, 553856, 554052, 554195, 554421, 554658, 554860, 555117, 555349, 555647, 555933, 556209, 556403, 556638, 556834, 557080, 557314, 557523, 557761, 557989, 558242, 558404, 558514, 558622, 558837, 558993, 559453, 559653, 559653, 559814, 559961, 560199, 560431, 560691, 560852, 561095, 561304, 561480, 561823, 562138, 562350, 562494, 562749, 562927, 563073, 563364, 563558, 563847, 564020, 564245, 564456, 564816, 564994, 565160, 565370, 565572, 565821, 566112, 566421, 566581, 566862, 567036, 567401, 567603, 567738, 567861, 568103, 568383, 568559, 568915, 569099, 569380, 569815, 570400, 570555, 570761, 571058, 571224, 571404, 571703, 572065, 572271, 572460, 572704, 572981, 573220, 573381, 573508, 573850, 574020, 574240, 574386, 574634, 574907, 575299, 575462, 575615, 575851, 576094, 576404, 576567, 576790, 576997, 577282, 577462, 577646, 577870, 578026, 578128, 578374, 578499, 578624, 578735, 578857, 578975, 579130, 579265, 579380, 579530, 579736, 579904, 580209, 580487, 580487, 580874, 581107, 581250, 581501, 581679, 581797, 581949, 582221, 582446, 582756, 582972, 582972, 582972, 583143, 583300, 583529, 583812, 584122, 584422, 584634, 584870, 585018, 585362, 585535, 585841, 586064, 586279, 586513, 586904, 587130, 587378, 587675, 587881, 588033, 588296, 588552, 588767, 589338, 589662, 589844, 589975, 590109, 590305, 590622, 590816, 591053, 591312, 591588, 591862, 592150, 592445, 592650, 592862, 593147, 593369, 593510, 593766, 594046, 594289, 594604, 594886, 595134, 595383, 595641, 595877, 596160, 596503, 596681, 596815, 597016, 597160, 597371, 597641, 597809, 598081, 598261, 598488, 598763, 599022, 599260, 599424, 599544, 599744, 599916, 599916, 599916, 600205, 600496, 600659, 600906, 601179, 601378, 601608, 601761, 601761, 601761, 601944, 602159, 602417, 602739, 602897, 603020, 603149, 603276, 603346, 603526, 603658, 603802, 604415, 604684, 605020, 605338, 605671, 605860, 605993, 606210, 606447, 606638, 606773, 606957, 607139, 607459, 607739, 607902, 608057, 608260, 608506, 608778, 609034, 609256, 609533, 609855, 610179, 610517, 610693, 610792, 610912, 611038, 611038, 611211, 611463, 611755, 612009, 612156, 612364, 612645, 612799, 613081, 613391, 613672, 614034, 614442, 614718, 614948, 615199, 615466, 615777, 615950, 616215, 616447, 616828, 617058, 617347, 617582, 617858, 618187, 618517, 618745, 618986, 619147, 619281, 619496, 619656, 619794, 620019, 620186, 620324, 620512, 620922, 621200, 621727, 621975, 622255, 622429, 622429, 622584, 622711, 623595, 623813, 623973, 624096, 624203, 624339, 624592, 624762, 625009, 625310, 625530, 625842, 626095, 626247, 626593, 626928, 627094, 627418, 627748, 627953, 628200, 628361, 628626, 628949, 629262, 629470, 629728, 629880, 630024, 630162, 630288, 630503, 630798, 631069, 631296, 631518, 631763, 631997, 632266, 632485, 632639, 632765, 632981, 633264, 633503, 633647, 633803, 633875, 634083, 634266, 634589, 634831, 635034, 635317, 635488, 635772, 635971, 636114, 636230, 636451, 636707, 637095, 637473, 637739, 637978, 638140, 638329, 638589, 638849, 639136, 639396, 639556, 639860, 640048, 640197, 640534, 640769, 640925, 641045, 641300, 641503, 641704, 641973, 642219, 642428, 642726, 643053, 643364, 643612, 643847, 644001, 644143, 644269, 644522, 644708, 644708, 644708, 644892, 645050, 645233, 645412, 645637, 645913, 646067, 646220, 646474, 646629, 646876, 647138, 647437, 647679, 648054, 648298, 648669, 649015, 649236, 649446, 649775
