Results for: 208.dart
========================================
Total Peaks Detected: 3077
Heart Rate: 102.44 BPM
========================================
Peak indices (3077 peaks):
694, 1580, 1861, 2061, 2061, 2245, 2559, 2747, 2931, 3202, 3413, 3606, 3886, 4099, 4265, 4566, 4758, 4945, 5197, 5407, 5569, 5900, 6105, 6305, 6580, 6776, 6937, 7170, 7350, 7546, 7751, 7952, 8148, 8317, 8531, 8727, 8923, 9086, 9296, 9473, 9650, 9823, 10035, 10231, 10422, 10596, 10790, 10974, 11155, 11324, 11527, 11698, 11889, 12055, 12274, 12472, 12681, 12895, 13100, 13285, 13487, 13671, 13851, 14047, 14249, 14450, 14623, 14623, 14846, 15037, 15224, 15432, 15629, 15832, 16034, 16241, 16422, 16678, 16900, 17091, 17313, 17517, 17717, 17918, 18111, 18307, 18521, 18728, 18931, 19095, 19095, 19334, 19539, 19717, 19920, 20106, 20292, 20455, 20721, 20932, 21103, 21360, 21560, 21732, 21949, 22148, 22340, 22495, 22738, 22945, 23130, 23384, 23591, 23786, 24003, 24206, 24399, 24399, 24567, 24856, 25059, 25234, 25514, 25716, 25876, 26121, 26322, 26505, 26505, 26724, 26917, 27120, 27120, 27398, 27633, 27847, 27847, 28014, 28315, 28509, 28675, 28963, 29172, 29347, 29579, 29780, 29985, 30191, 30400, 30601, 30601, 30764, 31064, 31248, 31440, 31440, 31703, 31914, 32078, 32317, 32517, 32720, 32927, 33131, 33318, 33522, 33738, 33955, 34123, 34406, 34612, 34772, 35022, 35223, 35383, 35632, 35842, 36024, 36247, 36452, 36650, 36816, 36816, 37045, 37239, 37431, 37612, 37810, 38040, 38202, 38534, 38724, 38895, 39186, 39382, 39553, 39791, 40007, 40187, 40511, 40722, 40722, 40902, 41236, 41421, 41593, 41905, 42095, 42284, 42570, 42785, 42943, 43245, 43445, 43624, 43908, 44099, 44263, 44539, 44756, 44922, 45227, 45432, 45600, 45855, 46066, 46214, 46491, 46703, 46866, 47148, 47350, 47513, 47769, 47972, 48131, 48374, 48578, 48754, 49021, 49239, 49410, 49656, 49865, 50046, 50323, 50521, 50677, 51008, 51208, 51208, 51394, 51709, 51907, 52084, 52332, 52542, 52685, 52978, 53190, 53369, 53637, 53836, 54002, 54260, 54464, 54637, 54865, 55084, 55271, 55570, 55799, 55949, 56267, 56458, 56627, 56933, 57120, 57300, 57554, 57772, 57936, 58231, 58448, 58607, 58878, 59076, 59221, 59505, 59715, 59883, 60150, 60352, 60520, 60764, 60972, 61156, 61406, 61619, 61786, 62098, 62321, 62485, 62750, 62954, 63117, 63365, 63562, 63755, 63981, 64192, 64401, 64565, 64855, 65057, 65218, 65450, 65634, 65825, 66018, 66219, 66419, 66592, 66792, 66976, 67169, 67330, 67561, 67748, 67931, 68134, 68343, 68556, 68721, 68980, 69192, 69347, 69618, 69816, 69964, 70231, 70444, 70606, 70882, 71088, 71246, 71510, 71715, 71869, 72127, 72322, 72484, 72755, 72970, 73133, 73377, 73579, 73738, 73992, 74194, 74338, 74338, 74596, 74803, 74968, 74968, 75211, 75700, 76010, 76204, 76401, 76590, 76794, 76966, 77241, 77452, 77608, 77869, 78074, 78232, 78465, 78647, 78840, 79043, 79263, 79471, 79471, 79635, 79932, 80131, 80284, 80526, 80723, 80902, 81108, 81310, 81509, 81676, 81895, 82079, 82275, 82439, 82648, 82830, 83005, 83169, 83169, 83400, 83607, 83805, 84002, 84195, 84396, 84557, 84815, 85012, 85169, 85402, 85606, 85811, 86017, 86225, 86437, 86590, 86885, 87074, 87229, 87489, 87694, 87862, 88107, 88309, 88491, 88714, 88929, 89128, 89367, 89567, 89719, 89996, 90212, 90375, 90631, 90834, 91005, 91224, 91426, 91631, 91845, 92055, 92266, 92449, 92723, 92929, 93088, 93348, 93544, 93695, 93925, 94131, 94322, 94538, 94734, 94934, 95097, 95358, 95559, 95716, 95951, 96153, 96338, 96338, 96572, 96788, 96999, 97161, 97464, 97655, 97815, 98104, 98301, 98479, 98749, 98954, 99114, 99355, 99561, 99738, 99964, 100163, 100335, 100335, 100569, 100788, 100977, 101249, 101455, 101612, 101871, 102080, 102239, 102488, 102688, 102865, 102865, 103093, 103293, 103498, 103661, 103933, 104133, 104288, 104532, 104741, 104938, 105166, 105375, 105581, 105736, 106048, 106245, 106400, 106662, 106856, 107012, 107262, 107473, 107684, 107896, 108114, 108311, 108478, 108765, 108955, 108955, 109124, 109439, 109645, 109814, 110066, 110277, 110444, 110679, 110879, 111044, 111310, 111531, 111696, 111978, 112185, 112343, 112600, 112806, 112976, 113202, 113402, 113588, 113846, 114057, 114257, 114257, 114494, 114707, 114892, 114892, 115117, 115314, 115527, 115747, 115976, 116184, 116184, 116412, 116627, 116843, 117064, 117283, 117444, 117693, 117909, 118105, 118350, 118554, 118752, 118954, 119155, 119355, 119510, 119771, 119985, 120148, 120410, 120613, 120798, 121009, 121197, 121383, 121544, 121755, 121944, 122137, 122311, 122311, 122546, 122742, 122936, 123097, 123097, 123335, 123536, 123719, 123922, 124101, 124299, 124469, 124469, 124697, 124901, 125100, 125262, 125489, 125677, 125863, 126053, 126241, 126429, 126612, 126816, 127009, 127202, 127364, 127572, 127754, 127942, 128105, 128304, 128493, 128697, 128868, 128868, 129112, 129311, 129494, 129685, 129738, 129874, 130056, 130241, 130428, 130612, 130800, 130974, 131178, 131371, 131565, 131731, 131939, 132111, 132290, 132465, 132631, 132809, 132989, 133053, 133180, 133366, 133562, 133755, 133964, 134027, 134159, 134346, 134530, 134711, 134891, 135084, 135284, 135459, 135716, 135931, 136105, 136346, 136550, 136739, 136993, 137205, 137392, 137677, 137908, 138063, 138387, 138850, 139050, 139243, 139413, 139706, 139922, 140107, 140341, 140554, 140756, 140919, 141199, 141633, 141844, 142061, 142232, 142506, 142919, 143117, 143317, 143476, 143741, 143964, 144188, 144350, 144651, 144873, 145030, 145323, 145522, 145669, 145945, 146157, 146371, 146546, 146826, 147036, 147221, 147457, 147677, 147876, 148054, 148373, 148587, 148757, 149049, 149266, 149421, 149677, 149870, 150053, 150312, 150531, 150741, 150741, 150932, 151274, 151462, 151738, 151960, 152156, 152340, 152667, 152883, 153079, 153363, 153571, 153726, 154016, 154217, 154378, 154706, 154916, 154916, 155105, 155105, 155398, 155620, 155786, 156063, 156265, 156411, 156695, 156925, 157091, 157413, 157628, 157780, 158081, 158298, 158448, 158737, 158953, 159116, 159447, 159659, 159835, 160140, 160344, 160502, 160804, 161024, 161198, 161508, 161725, 161883, 162168, 162381, 162536, 162833, 163034, 163202, 163202, 163535, 163759, 163927, 164208, 164419, 164571, 164851, 165049, 165212, 165465, 165674, 165884, 166104, 166337, 166544, 166743, 167061, 167249, 167432, 167804, 168013, 168013, 168202, 168519, 168721, 168901, 169222, 169406, 169591, 169591, 169929, 170131, 170333, 170660, 170857, 171039, 171348, 171544, 171723, 172044, 172251, 172434, 172755, 172955, 173143, 173462, 173644, 173836, 174139, 174362, 174536, 174822, 175029, 175195, 175504, 175700, 175874, 176199, 176399, 176399, 176592, 176896, 177100, 177276, 177566, 177759, 177928, 178251, 178457, 178646, 178976, 179167, 179348, 179642, 179841, 180008, 180308, 180510, 180696, 181049, 181250, 181424, 181755, 181945, 182120, 182473, 182671, 182856, 183215, 183408, 183587, 183915, 184106, 184276, 184577, 184781, 184975, 185307, 185503, 185677, 185981, 186176, 186342, 186644, 186842, 187016, 187365, 187574, 187747, 188049, 188241, 188404, 188686, 188882, 189050, 189396, 189601, 189765, 190099, 190300, 190466, 190772, 190959, 191132, 191419, 191643, 191805, 192102, 192308, 192468, 192794, 192991, 193148, 193471, 193677, 193845, 194155, 194360, 194360, 194535, 194845, 195036, 195201, 195508, 195718, 195890, 196174, 196381, 196540, 196781, 196981, 197163, 197359, 197541, 197747, 197919, 198257, 198458, 198632, 198959, 199149, 199316, 199592, 199803, 199964, 199964, 200291, 200493, 200671, 200671, 201009, 201201, 201363, 201684, 201871, 201871, 202045, 202359, 202581, 202748, 203026, 203237, 203391, 203693, 203884, 204050, 204050, 204361, 204573, 204750, 205038, 205256, 205412, 205701, 205896, 206059, 206059, 206386, 206593, 206775, 207078, 207281, 207449, 207738, 207946, 208106, 208373, 208589, 208757, 209064, 209275, 209432, 209755, 209950, 210130, 210407, 210614, 210784, 211086, 211306, 211477, 211773, 211977, 212142, 212423, 212616, 212781, 213098, 213310, 213488, 213771, 213987, 214150, 214451, 214648, 214802, 215103, 215312, 215312, 215499, 215783, 215994, 216151, 216415, 216624, 216783, 217069, 217288, 217449, 217750, 217965, 218119, 218409, 218618, 218769, 219039, 219250, 219421, 219718, 219939, 220093, 220365, 220575, 220724, 221003, 221204, 221359, 221636, 221848, 222014, 222282, 222490, 222657, 222925, 223132, 223287, 223567, 223775, 223952, 224225, 224427, 224674, 224960, 225150, 225309, 225618, 225816, 225816, 225992, 226245, 226443, 226637, 226826, 227013, 227194, 227378, 227567, 227745, 227940, 228137, 228348, 228566, 228776, 228946, 229227, 229431, 229592, 229839, 230053, 230223, 230495, 230707, 230897, 231119, 231329, 231541, 231700, 231979, 232180, 232375, 232607, 232821, 233027, 233225, 233426, 233630, 233789, 234048, 234256, 234435, 234710, 234934, 235096, 235400, 235619, 235773, 236036, 236235, 236391, 236646, 236870, 237069, 237345, 237556, 237718, 238042, 238241, 238405, 238692, 238899, 239073, 239357, 239573, 239740, 240013, 240224, 240371, 240646, 240857, 241032, 241321, 241535, 241696, 241954, 242165, 242323, 242595, 242795, 242950, 243253, 243469, 243651, 243931, 244134, 244290, 244577, 244774, 244931, 245231, 245441, 245617, 245900, 246118, 246280, 246559, 246756, 246917, 247181, 247391, 247558, 247832, 248044, 248203, 248466, 248677, 248842, 249104, 249299, 249455, 249725, 249942, 250109, 250422, 250626, 250794, 251064, 251270, 251420, 251691, 251910, 252072, 252372, 252576, 252739, 253048, 253245, 253410, 253679, 253891, 254071, 254379, 254593, 254761, 255048, 255258, 255414, 255697, 255902, 256063, 256373, 256593, 256771, 257082, 257286, 257463, 257736, 257940, 258098, 258430, 258640, 258640, 258831, 259127, 259346, 259515, 259791, 260000, 260144, 260446, 260668, 260835, 261141, 261354, 261514, 261801, 262015, 262172, 262457, 262677, 262839, 263146, 263360, 263523, 263819, 264030, 264186, 264480, 264690, 264877, 265215, 265413, 265594, 265884, 266091, 266252, 266547, 266755, 266920, 267258, 267472, 267649, 267949, 268156, 268312, 268610, 268816, 268978, 269290, 269515, 269668, 269974, 270198, 270352, 270658, 270852, 271016, 271324, 271553, 271714, 272030, 272236, 272399, 272717, 272919, 273088, 273395, 273608, 273784, 274093, 274301, 274471, 274773, 274974, 275139, 275417, 275640, 275801, 276096, 276312, 276467, 276784, 276983, 277160, 277435, 277650, 277806, 278117, 278341, 278496, 278806, 279001, 279174, 279454, 279655, 279823, 280148, 280351, 280531, 280855, 281052, 281227, 281501, 281700, 281852, 282149, 282374, 282535, 282860, 283056, 283232, 283543, 283737, 283893, 284183, 284405, 284569, 284861, 285080, 285235, 285520, 285721, 285878, 286177, 286387, 286560, 286852, 287070, 287224, 287503, 287719, 287865, 288164, 288358, 288537, 288880, 289085, 289256, 289532, 289741, 289891, 290171, 290379, 290534, 290851, 291057, 291238, 291536, 291741, 291897, 292175, 292378, 292523, 292816, 293039, 293205, 293488, 293697, 293849, 294153, 294352, 294513, 294798, 295005, 295177, 295470, 295690, 295845, 296132, 296333, 296491, 296782, 296982, 297160, 297451, 297666, 297827, 298119, 298331, 298494, 298789, 298977, 299149, 299465, 299677, 299850, 300131, 300340, 300501, 300789, 300996, 301152, 301426, 301638, 301811, 302081, 302296, 302459, 302756, 302967, 303127, 303409, 303626, 303796, 304089, 304304, 304459, 304779, 304987, 305150, 305415, 305627, 305790, 306109, 306327, 306506, 306822, 307017, 307197, 307493, 307693, 307856, 308162, 308385, 308549, 308861, 309073, 309242, 309528, 309729, 309889, 310208, 310431, 310597, 310899, 311109, 311277, 311571, 311781, 311929, 312213, 312436, 312608, 312910, 313124, 313282, 313548, 313757, 313916, 314170, 314398, 314589, 314864, 315082, 315259, 315592, 315804, 315957, 316272, 316473, 316653, 316911, 317120, 317314, 317507, 317701, 317905, 318115, 318316, 318516, 318738, 318889, 318889, 319203, 319421, 319582, 319823, 320018, 320205, 320374, 320629, 320849, 321062, 321270, 321478, 321685, 321851, 321851, 322083, 322279, 322472, 322644, 322865, 323083, 323321, 323484, 323810, 324011, 324011, 324182, 324465, 324672, 324837, 324960, 324960, 325086, 325300, 325368, 325516, 325687, 325997, 326214, 326380, 326640, 326846, 327008, 327279, 327503, 327708, 327961, 328175, 328391, 328556, 328843, 329054, 329197, 329485, 329709, 329875, 330174, 330392, 330578, 330809, 331028, 331235, 331504, 331746, 331963, 332192, 332497, 332705, 332896, 333219, 333416, 333587, 333587, 333893, 334125, 334300, 334588, 334807, 334968, 335179, 335527, 335713, 335971, 336199, 336418, 336418, 336621, 336942, 337144, 337402, 337626, 337823, 338025, 338360, 338570, 338570, 338758, 339090, 339296, 339556, 339773, 339976, 340144, 340452, 340680, 340846, 341209, 341405, 341685, 341908, 342126, 342294, 342569, 342792, 342975, 343227, 343439, 343647, 343812, 343812, 344060, 344263, 344479, 344732, 344974, 345187, 345187, 345380, 345380, 345717, 345913, 345913, 346092, 346427, 346618, 346795, 347089, 347323, 347489, 347800, 348002, 348179, 348511, 348701, 348898, 349237, 349441, 349633, 349633, 349971, 350169, 350432, 350661, 350854, 350854, 351134, 351388, 351607, 351896, 352134, 352347, 352628, 352840, 353000, 353361, 353565, 353781, 354057, 354281, 354486, 354667, 354970, 355166, 355166, 355372, 355743, 355945, 356236, 356466, 356696, 356928, 357156, 357340, 357661, 357898, 357898, 358065, 358065, 358418, 358616, 358801, 359069, 359282, 359444, 359749, 359963, 359963, 360162, 360162, 360482, 360689, 360930, 361158, 361359, 361627, 361864, 362078, 362369, 362611, 362808, 363081, 363313, 363514, 363745, 363948, 364165, 364365, 364622, 364861, 365051, 365361, 365590, 365758, 365933, 366098, 366324, 366558, 366731, 366936, 367082, 367316, 367546, 367719, 368030, 368223, 368223, 368418, 368757, 368969, 369212, 369433, 369651, 369822, 369822, 370146, 370338, 370531, 370531, 370835, 371055, 371288, 371534, 371752, 371955, 372226, 372445, 372656, 372946, 373192, 373400, 373400, 373687, 373937, 374137, 374408, 374622, 374826, 375094, 375337, 375554, 375812, 376049, 376247, 376548, 376767, 376944, 377111, 377285, 377517, 377747, 377910, 378143, 378299, 378513, 378730, 378896, 379196, 379419, 379419, 379607, 379909, 380117, 380306, 380524, 380727, 380937, 381121, 381391, 381632, 381798, 381798, 382175, 382374, 382627, 382849, 383051, 383265, 383265, 383544, 383785, 383996, 384285, 384538, 384739, 384739, 385045, 385264, 385436, 385624, 385781, 385990, 386243, 386401, 386792, 387000, 387261, 387482, 387683, 387938, 388195, 388404, 388723, 388970, 389138, 389311, 389473, 389702, 389922, 390190, 390436, 390650, 390953, 391198, 391402, 391402, 391707, 391938, 392114, 392293, 392468, 392732, 392953, 393220, 393454, 393658, 393945, 394176, 394387, 394659, 394908, 395123, 395123, 395428, 395661, 395859, 395859, 396138, 396362, 396576, 396866, 397111, 397315, 397315, 397602, 397844, 398042, 398312, 398539, 398750, 398750, 399032, 399270, 399484, 399735, 399966, 400166, 400459, 400687, 400898, 401200, 401446, 401644, 401644, 401823, 402177, 402370, 402370, 402610, 402823, 403043, 403043, 403324, 403568, 403770, 403770, 404072, 404310, 404458, 404648, 404808, 405073, 405273, 405273, 405617, 405844, 405844, 406114, 406350, 406551, 406551, 406804, 407027, 407232, 407232, 407544, 407789, 407994, 407994, 408277, 408521, 408720, 408976, 409195, 409405, 409672, 409917, 410137, 410398, 410621, 410821, 411088, 411301, 411507, 411507, 411746, 411984, 412200, 412469, 412705, 412907, 413170, 413389, 413587, 413587, 413861, 414097, 414308, 414560, 414792, 414992, 415270, 415503, 415691, 415970, 416209, 416428, 416679, 416910, 417111, 417377, 417600, 417796, 418084, 418321, 418533, 418799, 419030, 419237, 419501, 419717, 419908, 420180, 420424, 420638, 420899, 421131, 421331, 421331, 421617, 421850, 422045, 422283, 422508, 422728, 422945, 423163, 423372, 423569, 423764, 423951, 424137, 424321, 424511, 424700, 424885, 425071, 425251, 425429, 425599, 425776, 425945, 426113, 426276, 426434, 426597, 426769, 426949, 427131, 427302, 427473, 427633, 427805, 427977, 428144, 428316, 428494, 428673, 428868, 429070, 429268, 429483, 429684, 429876, 430065, 430065, 430243, 430428, 430618, 430796, 430994, 431196, 431392, 431609, 431808, 431993, 432193, 432387, 432571, 432756, 432933, 433126, 433333, 433529, 433727, 433923, 434107, 434293, 434478, 434665, 434857, 435042, 435224, 435421, 435625, 435825, 436027, 436223, 436427, 436630, 436832, 437043, 437227, 437432, 437645, 437859, 438078, 438894, 439094, 439297, 439483, 439686, 439868, 440122, 440335, 440511, 440730, 440919, 441110, 441300, 441486, 441676, 441884, 442102, 442325, 442527, 442763, 442974, 443174, 443381, 443579, 443775, 443991, 444200, 444412, 444624, 444821, 445024, 445199, 445418, 445618, 445808, 445993, 446187, 446387, 446590, 446784, 446984, 447186, 447386, 447577, 447767, 447963, 448168, 448357, 448655, 448850, 449086, 449297, 449500, 449738, 449963, 450156, 450387, 450611, 450828, 450828, 451087, 451306, 451504, 451761, 451988, 452172, 452429, 452650, 452854, 452854, 453101, 453326, 453531, 453756, 453967, 454128, 454253, 454389, 454584, 454783, 454999, 455215, 455435, 455726, 455871, 456089, 456257, 456442, 456701, 456888, 457097, 457300, 457495, 458482, 458482, 458650, 458799, 458988, 459178, 459386, 459600, 459799, 460071, 460290, 460486, 460725, 460923, 461114, 461328, 461553, 461772, 462001, 462216, 462415, 462640, 462843, 463043, 463249, 463471, 463669, 463669, 463669, 463969, 464214, 464406, 464682, 464886, 465087, 465285, 465487, 465697, 465909, 466108, 466305, 466491, 466689, 466892, 467092, 467285, 467470, 467681, 467911, 468121, 468121, 468353, 468576, 468794, 469013, 469226, 469436, 469626, 469826, 470025, 470229, 470440, 470642, 470842, 471040, 471238, 471441, 471633, 471885, 472129, 472322, 472512, 472850, 473063, 473263, 473463, 473665, 473860, 474143, 474345, 474653, 474896, 475054, 475342, 475534, 475759, 475957, 476146, 476146, 476411, 476627, 476847, 477062, 477288, 477473, 477629, 477930, 478116, 478314, 478509, 478706, 478903, 479102, 479291, 479482, 479695, 479929, 480125, 480403, 480594, 480827, 481037, 481239, 481475, 481705, 481896, 482184, 482377, 482603, 482814, 483025, 483253, 483482, 483672, 483946, 484161, 484335, 484530, 484798, 484981, 485230, 485461, 485657, 485914, 486113, 486305, 486536, 486746, 486923, 487210, 487422, 487660, 487874, 488076, 488272, 488463, 488643, 488824, 489001, 489171, 489356, 489546, 489744, 489941, 490147, 490344, 490560, 490757, 490951, 491142, 491320, 491517, 491725, 491937, 492147, 492358, 492532, 492796, 493005, 493195, 493195, 493436, 493649, 493844, 493844, 494136, 494354, 494613, 494829, 495029, 495253, 495459, 495649, 495862, 496102, 496309, 496309, 496630, 496832, 497105, 497329, 497526, 497711, 498009, 499912, 500121, 500224, 500401, 500631, 500836, 501070, 501292, 501494, 501723, 501925, 502114, 502366, 502596, 502814, 503045, 503265, 503460, 503764, 503980, 504186, 504426, 504653, 504857, 505117, 505342, 505546, 505833, 506058, 506237, 506417, 506719, 506928, 507162, 507369, 507578, 507744, 507989, 508189, 508385, 508585, 508788, 508994, 509187, 509420, 509628, 509826, 510025, 510227, 510427, 510601, 510849, 511070, 511274, 511558, 511792, 512016, 512198, 512458, 512659, 512868, 513083, 513295, 513551, 513773, 513975, 514194, 514408, 514622, 514826, 515021, 515229, 515413, 515715, 515918, 515918, 516204, 516428, 516628, 516858, 517072, 517269, 517498, 517707, 517919, 518131, 518344, 518559, 518752, 519038, 519231, 519442, 519655, 519876, 520094, 520320, 520522, 520522, 520746, 520964, 521160, 521414, 521623, 521825, 522076, 522313, 522514, 522789, 523006, 523198, 523374, 523616, 523813, 524028, 524261, 524476, 524476, 524725, 524931, 525142, 525351, 525553, 525743, 525934, 526144, 526350, 526546, 526769, 526987, 527181, 527464, 527682, 527837, 528123, 528325, 528325, 528561, 528770, 528973, 529161, 529387, 529603, 529783, 530040, 530243, 530426, 530691, 530912, 531078, 531318, 531526, 531721, 531928, 532159, 532348, 532604, 532844, 533052, 533346, 533574, 533762, 533962, 534223, 534410, 534620, 534825, 535022, 535217, 535405, 535601, 535814, 536043, 536282, 536471, 536758, 536960, 537241, 537479, 537693, 537897, 538094, 538294, 538497, 538708, 538899, 539151, 539369, 539572, 539801, 540017, 540228, 540443, 540645, 540846, 541043, 541252, 541467, 541634, 541903, 542112, 542281, 542517, 542721, 542895, 543124, 543325, 543512, 543774, 543994, 544172, 544451, 544669, 544822, 545112, 545308, 545520, 545731, 545938, 546112, 546380, 546587, 546754, 546995, 547185, 547362, 547561, 547765, 547974, 548162, 548385, 548581, 548786, 548994, 549197, 549396, 549581, 549781, 549996, 550211, 550423, 550627, 550792, 550890, 551010, 551196, 551388, 551592, 551791, 552004, 552166, 552450, 552661, 552842, 553057, 553259, 553461, 553682, 553875, 554080, 554292, 554594, 554781, 555045, 555258, 555463, 555669, 555885, 556081, 556363, 556586, 556802, 557026, 557255, 557460, 557460, 557687, 557884, 558075, 558241, 558479, 558704, 558921, 559131, 559331, 559540, 559756, 559986, 560203, 560392, 560626, 560865, 561082, 561345, 561557, 561763, 562012, 562242, 562444, 562678, 562910, 563120, 563413, 563645, 563850, 564127, 564345, 564540, 564540, 564806, 565053, 565261, 565537, 565778, 565981, 566251, 566483, 566682, 566940, 567165, 567374, 567670, 567899, 568102, 568373, 568605, 568797, 569060, 569309, 569511, 569806, 570056, 570263, 570263, 570557, 570783, 570979, 570979, 571250, 571481, 571693, 571987, 572227, 572425, 572695, 572940, 573134, 573434, 573653, 573653, 573937, 574185, 574393, 574667, 574906, 575099, 575369, 575596, 575799, 576090, 576325, 576534, 576828, 577059, 577258, 577258, 577440, 577772, 577974, 577974, 578259, 578494, 578698, 578970, 579197, 579393, 579393, 579685, 579918, 580108, 580108, 580296, 580449, 580702, 580947, 581111, 581301, 581457, 581701, 581902, 582180, 582440, 582646, 582977, 583194, 583373, 583720, 583912, 584195, 584428, 584646, 584933, 585186, 585382, 585682, 585897, 585897, 586092, 586462, 586649, 586971, 587213, 587357, 587719, 587912, 588179, 588395, 588595, 588849, 589103, 589306, 589640, 589847, 590134, 590378, 590550, 590723, 590880, 591128, 591345, 591655, 591893, 592058, 592242, 592411, 592657, 592845, 593153, 593394, 593549, 593549, 593925, 594127, 594401, 594619, 594817, 595049, 595273, 595492, 595782, 596014, 596215, 596495, 596739, 596936, 597202, 597436, 597645, 597936, 598172, 598382, 598641, 598883, 599077, 599347, 599574, 599792, 600011, 600233, 600456, 600685, 600904, 601123, 601344, 601557, 601765, 602084, 602333, 602484, 602831, 603030, 603330, 603542, 603717, 603717, 604047, 604244, 604559, 604786, 604951, 605285, 605468, 605745, 605970, 606181, 606391, 606391, 606740, 606929, 607234, 607454, 607454, 607645, 607645, 608016, 608270, 608528, 608782, 608942, 609127, 609302, 609578, 609775, 610110, 610316, 610316, 610632, 610855, 611048, 611431, 611630, 611828, 612159, 612346, 612618, 612857, 613067, 613067, 613354, 613585, 613760, 613945, 614108, 614347, 614534, 614534, 614842, 615066, 615407, 615622, 615622, 615807, 616183, 616372, 616703, 616926, 617198, 617466, 617671, 617671, 617969, 618201, 618368, 618543, 618695, 618923, 619139, 619139, 619475, 619705, 619705, 619868, 619868, 620235, 620430, 620732, 620954, 621100, 621464, 621659, 621965, 622201, 622392, 622592, 622900, 623085, 623382, 623619, 623798, 623990, 624357, 624561, 624718, 624718, 625054, 625237, 625490, 625734, 625952, 626219, 626456, 626654, 626958, 627168, 627350, 627696, 627897, 628208, 628437, 628612, 628942, 629134, 629397, 629604, 629824, 629824, 630059, 630059, 630373, 630586, 630765, 631126, 631317, 631630, 631834, 632026, 632378, 632583, 632872, 633094, 633291, 633478, 633797, 633981, 634261, 634497, 634718, 634920, 634920, 635255, 635452, 635718, 635943, 636136, 636136, 636339, 636703, 636903, 637179, 637417, 637615, 637813, 638134, 638321, 638639, 638863, 639132, 639369, 639576, 639850, 640080, 640279, 640470, 640837, 641039, 641328, 641564, 641734, 641916, 642071, 642281, 642479, 642479, 642479, 642708, 642708, 642999, 643241, 643455, 643732, 643970, 644172, 644456, 644681, 644879, 644879, 645153, 645388, 645598, 645834, 646068, 646270, 646540, 646764, 646969, 646969, 647286, 647516, 647516, 647683, 648035, 648222, 648522, 648738, 648895, 649207, 649414, 649705, 649937
