Results for: 209.dart
========================================
Total Peaks Detected: 3010
Heart Rate: 100.19 BPM
========================================
Peak indices (3010 peaks):
731, 1337, 1554, 1775, 2000, 2237, 2477, 2706, 2935, 3166, 3390, 3620, 3845, 4061, 4294, 4530, 4768, 5010, 5247, 5481, 5703, 5929, 6146, 6376, 6622, 6865, 7107, 7342, 7571, 7804, 8040, 8263, 8494, 8727, 8968, 9204, 9431, 9667, 9907, 10138, 10374, 10600, 10844, 11101, 11353, 11596, 11831, 12067, 12304, 12530, 12758, 13007, 13247, 13488, 13720, 13953, 14187, 14413, 14640, 14849, 15077, 15318, 15553, 15781, 16020, 16247, 16474, 16692, 16911, 17146, 17381, 17619, 17849, 18076, 18304, 18523, 18749, 18975, 19150, 19405, 19641, 19874, 20108, 20335, 20560, 20781, 20997, 21212, 21433, 21668, 21912, 22159, 22389, 22618, 22840, 23065, 23292, 23503, 23732, 23959, 24170, 24419, 24642, 24872, 25098, 25315, 25497, 25737, 25969, 26208, 26444, 26672, 26893, 27117, 27340, 27555, 27763, 27986, 28220, 28453, 28680, 28903, 29132, 29358, 29575, 29785, 30001, 30224, 30458, 30692, 30924, 31156, 31384, 31613, 31836, 32059, 32301, 32546, 32789, 33030, 33262, 33494, 33721, 33921, 34172, 34391, 34622, 34857, 35098, 35333, 35559, 35784, 36003, 36171, 36409, 36643, 36878, 37117, 37342, 37574, 37796, 38018, 38244, 38463, 38677, 38899, 39131, 39365, 39587, 39813, 40041, 40260, 40478, 40685, 40908, 41143, 41379, 41612, 41835, 42058, 42277, 42452, 42711, 42932, 43173, 43417, 43644, 43889, 44123, 44359, 44583, 44804, 45016, 45240, 45469, 45703, 45937, 46167, 46389, 46609, 46828, 47052, 47270, 47500, 47739, 47970, 48199, 48429, 48657, 48885, 49111, 49325, 49553, 49783, 50018, 50260, 50488, 50716, 50937, 51162, 51387, 51598, 51836, 52081, 52319, 52554, 52781, 53008, 53233, 53411, 53651, 53871, 53926, 54095, 54321, 54548, 54774, 55001, 55229, 55449, 55669, 55878, 56108, 56347, 56348, 56578, 56747, 56986, 57215, 57436, 57652, 57865, 58089, 58318, 58552, 58783, 59012, 59239, 59469, 59690, 59911, 60122, 60345, 60581, 60818, 61056, 61291, 61517, 61740, 61964, 62193, 62424, 62663, 62909, 63150, 63386, 63624, 63861, 64098, 64331, 64549, 64783, 65019, 65258, 65501, 65729, 65956, 66176, 66397, 66615, 66841, 67081, 67325, 67555, 67783, 68011, 68242, 68471, 68691, 68909, 69137, 69369, 69557, 69818, 70047, 70278, 70498, 70713, 70921, 71148, 71394, 71637, 71877, 72106, 72340, 72570, 72794, 73023, 73247, 73479, 73718, 73950, 74183, 74415, 74642, 74871, 75089, 75300, 75532, 75768, 76008, 76252, 76483, 76717, 76939, 77165, 77394, 77614, 77848, 78079, 78315, 78548, 78770, 78994, 79216, 79427, 79634, 79849, 80076, 80306, 80532, 80748, 80964, 81176, 81389, 81603, 81809, 82032, 82266, 82493, 82720, 82933, 83151, 83370, 83583, 83794, 83994, 84215, 84442, 84664, 84893, 85113, 85337, 85548, 85749, 85972, 86183, 86415, 86644, 86876, 87094, 87310, 87532, 87745, 87963, 88181, 88394, 88620, 88844, 89070, 89299, 89522, 89738, 89953, 90163, 90366, 90578, 90794, 91019, 91240, 91452, 91661, 91869, 92074, 92280, 92488, 92684, 92896, 93047, 93287, 93504, 93707, 93915, 94119, 94326, 94526, 94718, 94917, 95089, 95332, 95550, 95754, 95958, 96123, 96345, 96541, 96734, 96926, 97128, 97340, 97544, 97753, 97951, 98149, 98350, 98553, 98747, 98942, 99122, 99325, 99532, 99738, 99942, 100144, 100348, 100544, 100739, 100928, 101118, 101307, 101511, 101712, 101917, 102113, 102310, 102501, 102698, 102887, 103080, 103270, 103456, 103652, 103845, 104051, 104256, 104459, 104660, 104854, 105046, 105234, 105427, 105612, 105808, 106012, 106217, 106426, 106620, 106816, 107008, 107199, 107342, 107547, 107739, 107943, 108143, 108343, 108539, 108742, 108934, 109132, 109323, 109515, 109703, 109882, 110023, 110232, 110445, 110658, 110854, 111046, 111237, 111429, 111621, 111808, 111991, 112186, 112391, 112543, 112750, 112956, 113150, 113349, 113546, 113737, 113930, 114114, 114299, 114496, 114702, 114902, 115109, 115307, 115509, 115706, 115901, 116091, 116283, 116486, 116693, 116903, 117110, 117319, 117518, 117724, 117922, 118092, 118324, 118517, 118720, 118929, 119140, 119353, 119566, 119771, 119977, 120170, 120366, 120567, 120761, 120970, 121179, 121393, 121598, 121798, 121993, 122189, 122334, 122571, 122762, 122956, 123151, 123363, 123570, 123772, 123974, 124132, 124367, 124562, 124758, 124943, 125087, 125304, 125518, 125724, 125929, 126078, 126285, 126485, 126685, 126754, 126874, 127069, 127261, 127468, 127672, 127846, 128069, 128269, 128472, 128671, 128807, 129034, 129225, 129411, 129613, 129816, 130028, 130236, 130437, 130596, 130822, 131016, 131207, 131399, 131596, 131798, 132007, 132204, 132407, 132602, 132798, 132958, 133182, 133381, 133568, 133763, 133964, 134171, 134382, 134580, 134788, 134992, 135184, 135380, 135538, 135753, 135954, 136099, 136161, 136371, 136578, 136782, 136978, 137173, 137367, 137567, 137759, 137907, 138130, 138332, 138535, 138742, 138890, 139103, 139307, 139509, 139700, 139892, 140070, 140264, 140460, 140674, 140872, 141077, 141263, 141429, 141645, 141838, 142032, 142218, 142374, 142610, 142821, 143025, 143227, 143429, 143639, 143836, 144020, 144226, 144415, 144616, 144825, 145032, 145245, 145456, 145659, 145861, 146061, 146261, 146465, 146667, 146881, 147105, 147320, 147538, 147754, 147967, 148124, 148382, 148602, 148805, 149022, 149239, 149465, 149693, 149907, 150123, 150286, 150530, 150742, 150941, 151163, 151389, 151618, 151771, 151903, 152035, 152167, 152302, 152436, 152571, 152705, 152837, 152969, 153099, 153231, 153370, 153511, 153654, 153798, 153936, 154073, 154206, 154426, 154645, 154854, 155055, 155252, 155468, 155696, 155854, 155985, 156202, 156422, 156639, 156855, 157074, 157294, 157515, 157743, 157982, 158223, 158459, 158696, 158925, 159127, 159369, 159582, 159816, 160054, 160293, 160533, 160757, 160982, 161205, 161433, 161659, 161883, 162120, 162347, 162596, 162829, 163064, 163300, 163536, 163760, 163981, 164216, 164464, 164713, 164952, 165186, 165416, 165644, 165872, 166094, 166331, 166577, 166817, 167050, 167279, 167517, 167707, 167978, 168197, 168437, 168678, 168916, 169158, 169389, 169618, 169851, 170077, 170296, 170533, 170782, 171028, 171260, 171490, 171725, 171950, 172176, 172406, 172626, 172863, 173099, 173341, 173580, 173813, 173986, 174249, 174483, 174701, 174930, 175170, 175408, 175644, 175874, 176100, 176283, 176547, 176775, 177000, 177227, 177466, 177702, 177929, 178160, 178389, 178620, 178846, 179064, 179301, 179548, 179793, 180030, 180258, 180485, 180705, 180897, 181138, 181365, 181599, 181827, 182055, 182281, 182516, 182685, 182826, 183031, 183302, 183542, 183782, 184017, 184253, 184480, 184706, 184927, 185145, 185363, 185557, 185812, 186051, 186285, 186514, 186718, 186971, 187203, 187431, 187656, 187834, 188118, 188354, 188596, 188831, 189058, 189282, 189506, 189727, 189948, 190183, 190425, 190665, 190891, 191119, 191344, 191572, 191804, 192028, 192265, 192505, 192744, 192985, 193219, 193453, 193686, 193915, 194129, 194359, 194606, 194850, 195085, 195316, 195547, 195754, 195992, 196217, 196442, 196678, 196915, 197151, 197379, 197610, 197843, 198068, 198291, 198504, 198737, 198953, 199219, 199461, 199701, 199933, 200082, 200211, 200352, 200507, 200705, 200874, 201015, 201161, 201301, 201442, 201584, 201717, 201857, 201989, 202127, 202264, 202399, 202538, 202674, 202801, 202938, 203074, 203211, 203352, 203494, 203635, 203779, 203915, 204055, 204191, 204322, 204454, 204585, 204713, 204843, 204964, 205099, 205237, 205377, 205521, 205661, 205799, 205938, 206070, 206202, 206335, 206470, 206604, 206737, 206867, 206997, 207125, 207258, 207397, 207538, 207676, 207818, 207951, 208088, 208224, 208360, 208499, 208632, 208765, 208898, 209032, 209161, 209286, 209422, 209562, 209707, 209845, 209992, 210181, 210400, 210614, 210832, 211042, 211262, 211485, 211724, 211969, 212216, 212464, 212714, 212951, 213188, 213414, 213630, 213803, 214085, 214329, 214568, 214792, 215018, 215236, 215457, 215676, 215831, 215965, 216107, 216246, 216380, 216521, 216660, 216798, 216936, 217073, 217214, 217350, 217488, 217628, 217761, 217892, 218029, 218168, 218308, 218450, 218586, 218727, 218865, 218997, 219137, 219271, 219406, 219540, 219669, 219802, 219931, 220052, 220188, 220324, 220464, 220608, 220745, 220885, 221026, 221155, 221284, 221414, 221547, 221681, 221814, 221943, 222072, 222195, 222323, 222465, 222598, 222737, 222880, 223015, 223153, 223292, 223430, 223572, 223747, 223943, 224139, 224325, 224525, 224744, 224973, 225216, 225455, 225701, 225955, 226203, 226448, 226694, 226945, 227195, 227442, 227686, 227924, 228151, 228372, 228598, 228815, 229047, 229284, 229458, 229738, 229965, 230188, 230406, 230625, 230841, 231066, 231300, 231526, 231752, 231981, 232200, 232424, 232607, 232858, 233072, 233293, 233526, 233741, 233993, 234213, 234432, 234649, 234818, 235062, 235283, 235521, 235762, 235995, 236223, 236445, 236671, 236896, 237113, 237327, 237549, 237782, 237998, 238248, 238475, 238708, 238927, 239109, 239356, 239574, 239809, 240040, 240233, 240491, 240713, 240943, 241163, 241386, 241601, 241813, 242039, 242261, 242484, 242706, 242928, 243143, 243355, 243568, 243774, 243993, 244218, 244449, 244686, 244909, 245129, 245345, 245568, 245792, 246003, 246231, 246443, 246688, 246919, 247138, 247364, 247588, 247803, 248022, 248230, 248458, 248695, 248931, 249161, 249379, 249599, 249822, 250037, 250249, 250470, 250704, 250934, 251159, 251381, 251609, 251837, 252053, 252273, 252483, 252699, 252942, 253172, 253407, 253635, 253857, 254078, 254292, 254510, 254688, 254951, 255189, 255414, 255640, 255829, 256075, 256297, 256518, 256732, 256897, 257153, 257391, 257630, 257863, 258085, 258309, 258527, 258743, 258957, 259182, 259418, 259653, 259882, 260108, 260331, 260555, 260785, 261007, 261227, 261456, 261695, 261934, 262161, 262390, 262621, 262846, 263047, 263281, 263515, 263757, 263995, 264163, 264309, 264503, 264673, 264808, 264946, 265078, 265212, 265346, 265475, 265616, 265759, 265902, 266047, 266190, 266330, 266468, 266608, 266749, 266892, 267026, 267159, 267293, 267424, 267548, 267681, 267819, 267957, 268093, 268231, 268373, 268510, 268645, 268781, 268913, 269045, 269176, 269304, 269433, 269560, 269759, 269971, 270182, 270388, 270589, 270789, 270990, 271186, 271386, 271585, 271792, 271918, 272188, 272413, 272652, 272891, 273114, 273339, 273554, 273771, 273987, 274192, 274422, 274651, 274877, 275095, 275308, 275517, 275710, 275938, 276144, 276347, 276554, 276768, 276987, 277200, 277409, 277619, 277830, 278032, 278232, 278426, 278640, 278864, 279080, 279234, 279481, 279694, 279902, 280112, 280273, 280503, 280728, 280962, 281203, 281438, 281671, 281912, 282107, 282209, 282365, 282589, 282808, 283043, 283275, 283509, 283743, 283970, 284197, 284417, 284642, 284861, 285015, 285228, 285401, 285548, 285694, 285837, 285974, 286113, 286250, 286393, 286526, 286661, 286795, 286924, 287049, 287183, 287319, 287460, 287601, 287746, 287894, 288036, 288168, 288306, 288431, 288559, 288689, 288900, 289141, 289354, 289573, 289794, 290001, 290221, 290429, 290648, 290873, 291043, 291304, 291306, 291526, 291763, 292000, 292229, 292459, 292691, 292914, 293124, 293354, 293572, 293808, 294045, 294224, 294497, 294728, 294956, 295172, 295395, 295611, 295838, 296067, 296296, 296527, 296756, 296984, 297204, 297426, 297647, 297860, 298091, 298329, 298569, 298809, 299034, 299264, 299484, 299711, 299936, 300164, 300402, 300640, 300878, 301110, 301343, 301572, 301781, 302027, 302250, 302488, 302736, 302982, 303216, 303448, 303679, 303888, 304148, 304376, 304612, 304853, 305084, 305313, 305531, 305761, 305992, 306214, 306428, 306653, 306885, 307105, 307345, 307578, 307811, 308032, 308207, 308460, 308677, 308908, 309141, 309372, 309594, 309811, 310034, 310252, 310403, 310607, 310767, 310904, 311041, 311182, 311321, 311456, 311596, 311738, 311879, 312020, 312154, 312294, 312431, 312564, 312754, 313004, 313225, 313452, 313675, 313896, 314102, 314313, 314518, 314726, 314939, 315141, 315362, 315582, 315659, 315809, 316031, 316250, 316469, 316687, 316906, 317100, 317318, 317535, 317763, 317986, 318224, 318447, 318665, 318885, 319088, 319319, 319536, 319766, 319995, 320172, 320435, 320655, 320881, 321064, 321312, 321525, 321736, 321960, 322193, 322420, 322645, 322872, 323089, 323306, 323521, 323732, 323943, 324184, 324417, 324639, 324858, 325054, 325288, 325506, 325717, 325922, 326135, 326358, 326576, 326796, 327016, 327228, 327439, 327642, 327852, 328056, 328270, 328496, 328728, 328959, 329181, 329402, 329620, 329849, 330075, 330290, 330521, 330707, 330982, 331220, 331455, 331683, 331910, 332131, 332346, 332567, 332748, 333032, 333268, 333494, 333714, 333936, 334158, 334373, 334587, 334801, 335046, 335275, 335503, 335727, 335957, 336181, 336407, 336624, 336842, 337081, 337318, 337556, 337787, 338015, 338240, 338454, 338627, 338871, 339104, 339340, 339572, 339802, 340027, 340250, 340473, 340696, 340918, 341126, 341353, 341585, 341825, 342064, 342291, 342505, 342742, 342965, 343185, 343415, 343601, 343897, 344142, 344380, 344610, 344846, 345085, 345310, 345541, 345780, 346020, 346258, 346460, 346706, 346935, 347157, 347386, 347533, 347807, 348065, 348307, 348492, 348745, 348978, 349212, 349433, 349650, 349887, 350128, 350374, 350613, 350850, 351095, 351292, 351553, 351776, 352007, 352248, 352490, 352734, 352976, 353210, 353442, 353668, 353894, 354120, 354354, 354591, 354821, 355051, 355277, 355495, 355686, 355936, 356151, 356384, 356620, 356866, 357114, 357346, 357583, 357813, 358044, 358271, 358500, 358758, 359013, 359258, 359464, 359726, 359967, 360210, 360433, 360610, 360881, 361131, 361370, 361601, 361835, 362066, 362287, 362507, 362723, 362959, 363202, 363436, 363670, 363895, 364120, 364348, 364577, 364795, 365032, 365271, 365514, 365755, 365996, 366237, 366468, 366689, 366884, 367132, 367368, 367610, 367848, 368047, 368302, 368528, 368753, 368981, 369188, 369431, 369669, 369906, 370136, 370362, 370593, 370816, 371038, 371248, 371468, 371696, 371933, 372172, 372399, 372622, 372844, 373063, 373284, 373497, 373729, 373968, 374198, 374426, 374645, 374869, 375090, 375304, 375522, 375726, 375951, 376182, 376412, 376643, 376867, 377089, 377311, 377525, 377743, 377975, 378214, 378451, 378680, 378905, 379131, 379353, 379579, 379778, 380013, 380245, 380480, 380711, 380938, 381173, 381402, 381627, 381845, 382058, 382287, 382520, 382756, 382991, 383212, 383433, 383646, 383867, 384090, 384299, 384523, 384749, 384980, 385209, 385428, 385657, 385881, 386049, 386290, 386507, 386736, 386975, 387213, 387444, 387667, 387890, 388110, 388332, 388547, 388775, 389017, 389251, 389485, 389709, 389938, 390166, 390382, 390602, 390811, 391035, 391267, 391495, 391729, 391957, 392178, 392389, 392613, 392826, 393078, 393322, 393562, 393789, 394013, 394245, 394467, 394690, 394912, 395125, 395326, 395574, 395805, 396037, 396259, 396420, 396674, 396894, 397108, 397321, 397547, 397783, 398018, 398242, 398466, 398684, 398905, 399126, 399338, 399563, 399788, 400022, 400259, 400483, 400715, 400944, 401171, 401393, 401606, 401839, 402082, 402321, 402554, 402777, 402955, 403214, 403439, 403656, 403857, 404115, 404352, 404586, 404814, 405018, 405279, 405503, 405724, 405940, 406171, 406405, 406638, 406869, 407076, 407314, 407533, 407752, 407968, 408197, 408427, 408665, 408895, 409120, 409351, 409578, 409805, 410033, 410236, 410484, 410716, 410955, 411196, 411421, 411649, 411871, 412095, 412311, 412538, 412778, 413023, 413256, 413483, 413710, 413941, 414114, 414370, 414594, 414822, 415054, 415291, 415522, 415748, 415975, 416195, 416361, 416608, 416839, 417080, 417316, 417550, 417770, 417998, 418222, 418440, 418665, 418888, 419120, 419358, 419595, 419832, 420068, 420296, 420526, 420746, 420961, 421194, 421428, 421670, 421908, 422136, 422366, 422585, 422808, 422975, 423231, 423466, 423699, 423936, 424171, 424395, 424628, 424841, 425081, 425295, 425522, 425700, 425972, 426221, 426452, 426678, 426901, 427122, 427345, 427566, 427786, 428040, 428277, 428509, 428701, 428961, 429195, 429415, 429628, 429856, 430087, 430322, 430555, 430782, 431014, 431233, 431456, 431673, 431890, 432129, 432364, 432603, 432778, 433027, 433263, 433485, 433712, 433931, 434161, 434397, 434626, 434866, 435100, 435327, 435551, 435757, 435991, 436211, 436442, 436655, 436919, 437152, 437386, 437612, 437837, 438065, 438284, 438518, 438749, 438972, 439225, 439450, 439684, 439913, 440142, 440362, 440584, 440821, 441007, 441287, 441520, 441746, 441969, 442188, 442404, 442622, 442853, 443030, 443303, 443541, 443765, 443993, 444223, 444444, 444662, 444875, 445104, 445342, 445572, 445796, 446032, 446250, 446468, 446682, 446894, 447126, 447355, 447591, 447817, 448041, 448270, 448490, 448681, 448931, 449146, 449376, 449606, 449837, 450071, 450297, 450522, 450737, 450954, 451166, 451384, 451615, 451850, 452083, 452308, 452530, 452751, 452975, 453198, 453409, 453601, 453858, 454088, 454320, 454545, 454772, 454997, 455216, 455436, 455648, 455879, 456120, 456354, 456586, 456806, 457031, 457251, 457477, 457691, 457924, 458157, 458390, 458620, 458849, 459082, 459301, 459523, 459737, 459949, 460180, 460409, 460641, 460872, 461028, 461261, 461483, 461698, 461915, 462131, 462355, 462584, 462812, 463040, 463267, 463492, 463717, 463945, 464159, 464388, 464622, 464866, 465062, 465330, 465567, 465790, 466013, 466238, 466454, 466690, 466932, 467147, 467394, 467617, 467841, 468068, 468290, 468507, 468734, 468973, 469218, 469452, 469628, 469905, 470134, 470360, 470579, 470802, 471042, 471278, 471518, 471741, 471966, 472196, 472418, 472646, 472867, 473101, 473345, 473581, 473819, 474059, 474257, 474510, 474734, 474952, 475185, 475418, 475662, 475905, 476134, 476366, 476590, 476816, 477044, 477264, 477490, 477728, 477960, 478194, 478419, 478614, 478868, 479096, 479314, 479484, 479759, 480008, 480248, 480474, 480701, 480926, 481148, 481368, 481588, 481823, 482059, 482290, 482518, 482744, 482972, 483199, 483422, 483638, 483864, 484103, 484344, 484584, 484816, 485055, 485285, 485512, 485726, 485961, 486206, 486443, 486682, 486911, 487141, 487366, 487590, 487822, 488046, 488280, 488520, 488761, 489000, 489237, 489469, 489694, 489917, 490136, 490366, 490608, 490849, 491091, 491321, 491548, 491753, 492011, 492234, 492468, 492706, 492946, 493184, 493411, 493650, 493881, 494102, 494328, 494543, 494777, 495023, 495265, 495498, 495723, 495950, 496181, 496402, 496619, 496857, 497095, 497331, 497562, 497788, 498021, 498245, 498467, 498680, 498900, 499133, 499367, 499605, 499839, 500064, 500291, 500511, 500733, 500952, 501184, 501420, 501650, 501884, 502111, 502292, 502550, 502777, 502995, 503212, 503388, 503650, 503895, 504132, 504360, 504588, 504813, 505034, 505249, 505484, 505724, 505964, 506201, 506378, 506637, 506874, 507108, 507328, 507499, 507754, 507997, 508235, 508409, 508666, 508907, 509132, 509355, 509570, 509806, 510052, 510288, 510527, 510752, 510976, 511202, 511426, 511644, 511873, 512106, 512347, 512580, 512809, 513040, 513262, 513488, 513705, 513920, 514155, 514391, 514634, 514877, 515104, 515333, 515556, 515784, 516007, 516235, 516474, 516708, 516944, 517175, 517401, 517630, 517858, 518080, 518297, 518527, 518767, 519013, 519250, 519485, 519711, 519940, 520171, 520386, 520604, 520866, 521104, 521341, 521564, 521793, 522023, 522247, 522465, 522686, 522918, 523160, 523393, 523626, 523859, 524083, 524308, 524525, 524741, 524979, 525217, 525455, 525683, 525908, 526134, 526352, 526579, 526795, 526992, 527248, 527485, 527721, 527951, 528183, 528410, 528629, 528850, 529065, 529297, 529537, 529773, 530009, 530234, 530458, 530679, 530884, 531121, 531349, 531584, 531822, 532056, 532282, 532513, 532742, 532971, 533191, 533406, 533641, 533885, 534127, 534362, 534586, 534810, 535024, 535249, 535465, 535691, 535930, 536163, 536394, 536615, 536844, 537074, 537295, 537516, 537732, 537960, 538198, 538435, 538668, 538898, 539121, 539346, 539569, 539789, 540028, 540268, 540507, 540743, 540939, 541197, 541427, 541651, 541878, 542040, 542314, 542556, 542801, 543038, 543266, 543491, 543715, 543936, 544151, 544386, 544626, 544865, 545096, 545324, 545554, 545732, 545989, 546214, 546445, 546681, 546922, 547163, 547398, 547633, 547867, 548095, 548317, 548535, 548779, 549026, 549265, 549501, 549689, 549954, 550184, 550413, 550564, 550779, 550951, 551103, 551253, 551401, 551548, 551702, 551920, 552210, 552444, 552662, 552879, 553113, 553345, 553577, 553809, 554032, 554254, 554470, 554694, 554914, 555144, 555339, 555610, 555851, 556085, 556315, 556546, 556778, 556999, 557178, 557445, 557688, 557932, 558165, 558394, 558615, 558841, 559051, 559277, 559514, 559759, 559997, 560181, 560441, 560673, 560900, 561095, 561337, 561562, 561799, 562042, 562282, 562519, 562755, 562986, 563218, 563441, 563665, 563911, 564155, 564396, 564624, 564854, 565088, 565268, 565528, 565753, 565985, 566154, 566418, 566663, 566897, 567127, 567356, 567577, 567799, 568019, 568237, 568496, 568734, 568968, 569201, 569425, 569648, 569879, 570101, 570334, 570568, 570806, 571044, 571270, 571504, 571738, 571961, 572175, 572401, 572637, 572863, 573114, 573342, 573567, 573791, 574015, 574238, 574458, 574694, 574875, 575156, 575394, 575623, 575858, 576087, 576311, 576523, 576756, 576954, 577215, 577451, 577677, 577842, 578067, 578288, 578501, 578711, 578939, 579166, 579397, 579623, 579838, 580061, 580276, 580491, 580708, 580915, 581139, 581363, 581567, 581819, 582044, 582265, 582476, 582653, 582896, 583106, 583336, 583568, 583799, 584022, 584239, 584456, 584673, 584891, 585098, 585316, 585539, 585766, 585999, 586221, 586447, 586670, 586868, 587103, 587309, 587537, 587774, 587980, 588238, 588461, 588687, 588908, 589122, 589341, 589556, 589556, 589556, 589784, 590010, 590237, 590463, 590684, 590885, 591123, 591343, 591555, 591763, 591974, 592217, 592447, 592675, 592891, 593109, 593319, 593534, 593747, 593967, 594196, 594422, 594656, 594881, 595102, 595323, 595538, 595754, 595952, 596165, 596381, 596603, 596827, 597040, 597254, 597458, 597662, 597869, 598065, 598275, 598488, 598678, 598919, 599137, 599342, 599550, 599762, 599970, 600178, 600380, 600601, 600826, 601052, 601278, 601437, 601683, 601904, 602122, 602331, 602538, 602762, 602992, 603218, 603411, 603643, 603861, 604074, 604229, 604477, 604692, 604912, 605141, 605360, 605587, 605811, 605996, 606243, 606457, 606676, 606888, 607112, 607348, 607578, 607804, 608021, 608238, 608449, 608664, 608865, 609089, 609313, 609530, 609710, 609960, 610179, 610402, 610623, 610845, 611056, 611273, 611501, 611690, 611959, 612181, 612400, 612615, 612826, 613039, 613240, 613452, 613685, 613906, 614129, 614343, 614513, 614755, 614978, 615196, 615399, 615618, 615844, 616073, 616305, 616530, 616760, 616980, 617134, 617342, 617505, 617648, 617798, 617952, 618165, 618350, 618504, 618653, 618863, 619037, 619180, 619323, 619468, 619609, 619742, 619886, 620038, 620191, 620399, 620693, 620928, 621151, 621347, 621567, 621780, 621989, 622159, 622417, 622664, 622894, 623119, 623343, 623573, 623803, 624002, 624246, 624483, 624724, 624963, 625200, 625435, 625669, 625896, 626122, 626346, 626591, 626845, 627036, 627316, 627559, 627801, 628034, 628269, 628500, 628742, 628937, 629218, 629461, 629705, 629940, 630178, 630406, 630633, 630874, 631126, 631373, 631614, 631780, 631984, 632152, 632294, 632435, 632578, 632722, 632938, 633248, 633492, 633728, 633961, 634192, 634424, 634621, 634867, 635103, 635345, 635593, 635838, 636068, 636302, 636517, 636752, 636970, 637207, 637447, 637688, 637927, 638158, 638392, 638624, 638857, 639087, 639308, 639495, 639776, 640023, 640262, 640500, 640734, 640966, 641194, 641421, 641670, 641921, 642173, 642413, 642619, 642879, 643108, 643341, 643570, 643805, 644047, 644279, 644476, 644742, 644970, 645196, 645357, 645604, 645841, 646075, 646321, 646566, 646797, 647036, 647266, 647444, 647718, 647949, 648195, 648436, 648674, 648914, 649150, 649388, 649628, 649858
