peak_index
866
1817
2028
2249
2507
2749
2986
3246
3464
3674
3864
4151
4381
4595
4825
5124
5362
5631
5828
6092
6364
6740
6947
7186
7414
7617
7842
8399
8668
8876
9102
9415
9677
9899
10247
10498
10750
10952
11427
11670
11923
12167
12375
12789
13016
13201
13451
13723
13977
14197
14449
14667
14953
15185
15413
15641
15874
16125
16351
16605
16845
16991
17259
17521
17786
18053
18257
18513
18747
18977
19355
19555
19767
20033
20274
20510
20692
21047
21246
21444
21638
21840
22082
22356
22618
22876
23184
23438
23691
23939
24193
24431
24700
24967
25192
25390
25553
25846
26102
26308
26514
26779
27110
27365
27580
27826
28098
28332
28619
28885
29135
29413
29661
29909
30204
30448
30683
30955
31150
31423
31636
31915
32151
32340
32552
32805
33083
33337
33606
33870
34130
34379
34605
34800
35070
35401
35695
35914
36166
36419
36643
36888
37120
37328
37610
37875
38133
38369
38602
38851
39066
39340
39556
39836
40111
40328
40537
40777
41046
41300
41565
41815
42048
42288
42488
42680
42918
43115
43345
43550
43799
44132
44371
44626
44626
45051
45236
45513
45703
45981
46235
46427
46665
46847
47111
47356
47570
47827
48099
48286
48548
48836
49088
49314
49517
49665
49996
50287
50558
50811
51057
51323
51520
51813
52084
52367
52612
52919
53168
53420
53665
53964
54245
54552
54781
54998
55233
55542
55795
56059
56309
56598
56870
57127
57371
57598
57851
58092
58361
58572
58838
59066
59400
59609
59879
60118
60360
60565
60762
61017
61272
61526
61791
62019
62251
62474
62710
62978
63209
63477
63715
63945
64218
64469
64768
64991
65238
65519
65808
66040
66302
66624
66822
67080
67331
67572
67837
68118
68362
68564
68821
69079
69301
69524
69749
70015
70290
70535
70792
71026
71282
71506
71728
71935
72567
72792
73016
73224
73463
73711
73992
74250
74469
74829
75069
75275
75478
75955
76223
76447
76686
76898
77151
77349
77540
77797
78035
78277
78520
78765
78987
79166
79476
79718
79957
80212
80461
80902
81185
81386
81476
81476
81644
81875
82097
82275
82391
82552
82663
82919
83133
83394
83666
83916
84068
84320
84523
84787
85060
85322
85395
85575
85815
85891
86077
86313
86537
86774
86774
87128
87400
87677
87887
88147
88394
88634
88856
89072
89313
89598
89897
90162
90367
90589
90856
91119
91360
91586
91837
92138
92402
92813
93011
93257
93666
93921
94184
94478
94707
95048
95280
95574
95839
96096
96396
96621
96780
97092
97338
97577
97832
98078
98385
98563
98789
99069
99317
99571
99831
100035
100268
100555
100727
100975
101237
101457
101657
101907
102140
102382
102645
102918
103166
103441
103652
103887
104138
104425
104724
104956
105187
105424
105704
105949
106156
106382
106558
106821
107088
107313
107522
107733
107979
108192
108653
108835
109059
109301
109544
109764
110003
110254
110508
110766
110993
111260
111532
111764
111998
112267
112495
112703
112951
113164
113372
113611
113922
114181
114392
114589
114767
115061
115328
115560
115794
115949
116225
116465
116699
116909
117162
117509
117760
117989
118307
118542
118788
119016
119265
119498
119665
119977
120184
120411
120750
121055
121307
121557
121834
122081
122363
122593
122836
123069
123290
123511
123818
124051
124293
124526
124824
125095
125309
125572
125825
126120
126398
126638
126886
127162
127410
127644
127874
128134
128420
128620
128869
129032
129306
129521
129755
130015
130274
130550
130820
131146
131503
131754
132012
132272
132535
132805
133046
133337
133632
133889
134089
134379
134642
134894
135169
135400
135644
135852
136092
136334
136663
136904
137187
137435
137680
137925
138152
138411
138664
138929
139284
139527
139777
140030
140249
140545
140829
141105
141358
141649
141919
142194
142385
142613
142865
143103
143390
143666
143937
144200
144447
144670
144918
145128
145414
145705
145938
146194
146404
146622
146836
147037
147244
147572
147832
148101
148335
148547
148781
149015
149235
149559
149827
150049
150315
150572
150820
151031
151246
151455
151642
151774
151961
152077
152220
152363
152603
152764
153060
153293
153498
153755
154044
154311
154552
154775
155024
155395
155637
155904
156157
156443
156699
156936
157176
157397
157608
157822
158035
158308
158548
158948
159209
159476
159734
159935
160177
160439
160721
160980
161211
161477
161701
161933
162165
162438
162699
162866
163127
163360
163594
163849
164221
164446
164741
165015
165281
165493
165694
165928
166189
166469
166685
166883
167127
167377
167624
167894
168196
168445
168685
168952
169218
169449
169714
170053
170222
170471
170626
170855
171117
171380
171592
171828
172097
172359
172571
172816
173041
173291
173594
173844
174187
174589
174841
175108
175370
175603
175906
176168
176404
176603
176963
177145
177400
177703
177983
178232
178492
178747
178934
179273
179499
179935
180189
180452
180680
180965
181213
181441
181642
181865
182159
182453
182748
182983
183195
183433
183683
183947
184223
184451
184719
184966
185152
185460
185652
185887
186185
186469
186727
186973
187199
187405
187644
187890
188127
188384
188675
188912
189194
189454
189676
189968
190210
190429
190678
190940
191206
191491
191763
192036
192276
192502
192780
193065
193299
193546
193764
193977
194426
194930
195171
195397
195657
195920
196137
196334
196588
196845
197103
197375
197602
197846
198077
198291
198431
198735
198957
199205
199444
199708
199940
200202
200446
200692
200920
201288
201524
201795
202037
202482
202699
202925
203174
203397
203667
203946
204186
204397
204623
204873
205138
205357
205578
205802
206066
206317
206572
206787
207030
207234
207473
207788
208061
208325
208598
208875
209118
209339
209588
209844
210170
210420
210677
210947
211204
211439
211782
212029
212252
212501
212795
213153
213465
213741
214000
214221
214480
214793
215058
215288
215486
215717
216022
216161
216416
216657
217079
217293
217545
217846
218046
218272
218435
218666
218921
219161
219415
219871
220086
220278
220444
220676
220959
221237
221517
221786
221994
222251
222451
222665
223258
223512
223759
224023
224263
224480
224734
224998
225217
225476
225732
226041
226319
226563
226815
227077
227370
227606
227942
228153
228408
228669
228898
229096
229332
229588
229857
230101
230310
230528
230724
230976
231193
231384
231554
231783
232016
232241
232491
232686
232880
233103
233351
233611
233876
234115
234376
234621
234865
235059
235267
235501
235858
236122
236409
236702
236999
237228
237464
237713
237965
238280
238558
238810
239045
239280
239516
239744
239934
240172
240409
240643
240932
241203
241435
241666
241916
242117
242569
242845
243149
243410
243634
243835
244123
244381
244598
244896
245133
245338
245592
245817
246283
246512
246782
247112
247347
247668
247927
248210
248391
248640
248885
249214
249478
249695
249984
250220
250457
250708
250954
251205
251499
251745
252001
252236
252480
252718
252968
253210
253455
253699
253924
254185
254430
254648
254911
255143
255456
255735
255971
256179
256454
256721
256942
257172
257427
257661
257906
258175
258406
258648
258876
259118
259376
259606
259817
260064
260328
260575
260801
261025
261279
261530
261722
261946
262157
262537
262718
262935
263199
263414
263668
263942
264224
264503
264751
265015
265216
265448
265667
265911
266253
266508
266727
266981
267224
267538
267795
268119
268393
268608
268893
269130
269405
269626
269876
270122
270363
270572
270819
271138
271386
271620
271846
272086
272321
272555
272801
273033
273327
273562
273938
274199
274460
274753
275026
275264
275564
275819
276041
276257
276541
276798
277060
277310
277519
277849
277984
278199
278422
278678
278924
279167
279392
279587
279823
280039
280336
280533
280748
280997
281255
281500
281758
281989
282222
282495
282704
282964
283178
283397
283680
283946
284236
284533
284813
285068
285288
285518
285791
286040
286286
286558
286823
287058
287231
287407
287621
287853
288091
288304
288645
288753
289071
289380
289607
289841
290124
290389
290639
290842
291138
291443
291676
291915
292195
292443
292780
293038
293285
293520
293779
293993
294261
294498
294753
295047
295310
295569
295797
296032
296283
296565
296827
297106
297335
297565
297762
297919
298133
298329
298595
298809
298964
299157
299423
299688
299958
300222
300462
300716
300972
301175
301429
301685
301947
302198
302466
302696
302908
303053
303150
303400
303629
303960
304181
304415
304657
304933
305189
305412
305685
305911
306102
306390
306544
306775
307021
307276
307539
307814
308069
308319
308532
308865
309086
309334
309589
309827
310081
310352
310607
310872
311039
311299
311629
311883
312114
312366
312604
312833
313078
313332
313556
313829
314096
314384
314619
314843
315101
315326
315560
315843
316053
316268
316665
316911
317173
317474
317706
317954
318162
318405
318620
318884
319140
319390
319637
319881
320139
320386
320658
320947
321127
321365
321652
321877
322109
322420
322693
322900
323161
323480
323716
323962
324195
324442
324658
324900
325100
325412
325651
325849
326101
326302
326529
326749
327014
327277
327505
327758
327995
328228
328492
328818
329084
329322
329564
329780
330000
330219
330418
330663
330876
331104
331384
331672
331903
332157
332397
332611
332888
333110
333406
333568
333854
334074
334306
334568
334818
335189
335425
335673
335965
336215
336459
336744
336947
337348
337606
337900
338154
338436
338655
338878
339120
339357
339859
340136
340355
340778
341004
341223
341450
341635
341898
342165
342412
342607
342850
343094
343423
343643
343881
344103
344343
344572
344825
345088
345349
345585
345776
345831
345985
346191
346192
346522
346713
346910
347164
347392
347615
347806
348035
348338
348544
348778
349055
349266
349744
349926
350207
350411
350645
350916
351160
351371
351638
351908
352115
352367
352598
352904
353142
353397
353651
353884
354153
354596
354855
355093
355406
355673
355890
356137
356365
356606
356845
357080
357300
357593
357880
358135
358388
358610
358816
359053
359287
359551
359805
360057
360309
360723
360929
361187
361534
361816
362072
362408
362608
362855
363113
363382
363630
363913
364162
364418
364639
364893
365133
365379
365640
365878
366090
366242
366552
366698
366698
367040
367237
367237
367437
367668
367835
368074
368236
368492
368787
368938
369264
369459
369712
369927
369927
370131
370397
370617
370894
371171
371432
371644
371901
372183
372459
372719
372964
373221
373469
373732
373907
374143
374443
374708
374964
375246
375557
375822
376062
376331
376632
376850
377111
377270
377475
377716
377945
378163
378301
378529
378813
379104
379375
379559
379814
380037
380261
380510
380807
380955
381192
381438
381698
381926
382115
382354
382613
382883
383197
383483
383740
384012
384278
384528
384754
384950
385192
385458
385716
386039
386376
386624
386865
387120
387408
387704
387942
388202
388388
388712
388959
389195
389372
389683
389899
390032
390261
390493
390810
391243
391804
391804
392297
392580
392838
393094
393340
393636
393915
394183
394670
394928
395177
395449
395676
395906
396198
396482
396707
396936
397128
397332
397552
397806
397985
398307
398467
398699
399003
399201
399307
399596
399867
400220
400426
400692
401037
401310
401571
401735
401939
402174
402468
402760
403015
403277
403546
403776
404015
404218
404442
404732
405006
405274
405546
405826
406028
406270
406553
406822
407160
407382
407599
407800
408008
408298
408589
408822
409046
409308
409570
409801
410070
410325
410603
410883
411110
411340
411497
411749
412019
412302
412511
412814
413092
413308
413522
413796
414054
414320
414563
414785
415027
415237
415519
415770
415972
416202
416469
416704
416941
417389
417641
417943
418178
418428
418881
419142
419369
419597
419859
420119
420406
420653
420921
421163
421427
421737
421955
422233
422508
422763
423054
423329
423577
423858
424130
424414
424611
424882
425141
425366
425583
425718
426024
426225
426532
426855
427101
427353
427604
427851
428091
428244
428575
428841
429092
429305
429515
429732
429927
430152
430446
430715
430999
431321
431547
431762
432000
432220
432539
432785
433056
433331
433603
433852
434086
434335
434616
434889
435089
435366
435570
435804
436037
436288
436642
436880
437139
437404
437646
437895
438149
438402
438658
438879
439102
439390
439717
439938
440156
440367
440797
441011
441263
441526
441759
442057
442302
442518
442747
443000
443253
443480
443737
443985
444256
444510
444747
444957
445158
445389
445714
445879
446167
446326
446552
446782
447003
447233
447484
447729
447976
448232
448513
448807
449075
449298
449530
449796
450083
450355
450578
450828
451241
451496
451716
451959
452202
452458
452729
452957
453216
453427
453683
453948
454242
454490
454953
455191
455488
455781
456105
456361
456737
456975
457200
457411
457618
457871
458106
458338
458555
458794
459029
459264
459495
459715
459912
460115
460558
460749
461029
461296
461527
461784
462275
462543
462715
462944
463209
463445
463719
463983
464246
464465
464776
465087
465302
465547
465816
466072
466342
466546
466778
467003
467248
467470
467716
468105
468375
468614
468855
469143
469437
469711
469977
470235
470473
470665
470885
471107
471340
471586
471880
472196
472424
472612
472822
473066
473288
473492
473753
474031
474267
474513
474747
474968
475209
475449
475665
475914
476170
476407
476614
476866
477100
477326
477680
477929
478246
478474
478725
478948
479198
479405
479636
479879
480213
480384
480673
481002
481267
481486
481704
481918
482120
482362
482664
482959
483129
483414
483608
483860
484073
484294
484515
484770
484994
485307
485578
485833
486066
486294
486571
486788
487045
487273
487538
487771
487995
488322
488538
488773
488993
489257
489487
489777
490036
490274
490503
490730
491011
491323
491662
491906
492176
492408
492781
493058
493536
493802
494057
494278
494517
494765
494989
495199
495496
495851
496181
496448
496654
496820
497108
497348
497596
497850
498226
498439
498713
498957
499208
499428
499634
499869
500097
500340
500606
500866
501115
501375
501571
501821
502087
502339
502563
502781
503029
503214
503422
503643
503879
504105
504365
504627
504857
505114
505402
505698
505899
506120
506381
506606
506829
506989
507339
507588
507816
508067
508274
508524
508787
509118
509358
509578
509793
510025
510273
510524
510790
511058
511305
511535
511764
511997
512187
512558
512812
513063
513312
513605
513872
514211
514441
514713
514957
515219
515442
515823
516035
516252
516459
516708
516937
517185
517431
517697
517946
518198
518419
518676
518947
519210
519422
519677
519941
520184
520435
520685
520938
521190
521473
521726
521962
522179
522384
522631
522882
523121
523386
523649
523882
524120
524450
524652
524828
525163
525392
525654
525913
526173
526421
526658
526875
527125
527366
527566
527862
528114
528378
528582
528825
529092
529316
529551
529749
530025
530252
530506
530715
530964
531222
531439
531645
531895
532171
532424
532712
532994
533222
533444
533686
533929
534183
534511
534751
534992
535280
535579
535817
536036
536252
536535
536794
537047
537312
537579
537814
538082
538305
538591
538850
539081
539355
539572
539817
540096
540323
540553
540782
541041
541302
541600
541814
542054
542253
542493
542889
543142
543382
543605
543850
544107
544455
544681
544895
545384
545646
545871
546120
546419
546740
546959
547222
547522
547770
547996
548262
548523
548765
549022
549232
549486
549650
549898
550153
550395
550635
551008
551247
551520
551824
552076
552542
552852
553111
553374
553636
553839
554095
554403
554683
554917
555147
555413
555727
555994
556261
556515
556783
557062
557288
557568
557813
558070
558292
558513
558751
559029
559275
559542
559774
559996
560215
560478
560730
560991
561229
561432
561740
561987
562208
562484
562651
562959
563246
563490
563719
563954
564175
564462
564691
564902
565147
565350
565566
565878
566019
566434
566722
566988
567221
567439
567638
567861
568018
568232
568526
568871
569130
569396
569642
569865
570127
570384
570616
570846
571150
571395
571615
571886
572029
572292
572480
572712
572914
573173
573438
573701
574077
574332
574621
574889
575092
575336
575788
576112
576319
576526
576769
577042
577244
577543
577846
578102
578330
578591
578848
579070
579262
579521
579671
579999
580231
580477
580723
580926
581159
581447
581672
581920
582175
582456
582682
582881
583145
583309
583527
583758
584011
584274
584523
584713
585024
585261
585506
585740
585981
586237
586490
586732
586987
587244
587468
587677
587908
588111
588402
588545
588871
589062
589062
589295
589580
589836
590420
590665
590906
591138
591352
591606
591883
592088
592339
592778
593003
593287
593554
593833
594095
594361
594622
594876
595102
595383
595628
595866
596284
596585
596828
596998
597243
597443
597740
597912
598202
598422
598630
599017
599166
599440
599675
599858
600218
600473
600694
600911
601162
601428
601680
601898
602132
602523
602758
602983
603207
603653
603944
604171
604434
604696
605012
605227
605447
605691
605940
606198
606442
606725
606984
607214
607427
607662
607913
608176
608409
608876
609062
609367
609597
609932
610199
610449
610686
610892
611154
611370
611601
611845
612162
612441
612679
612905
613139
613351
613568
613817
614069
614275
614553
614823
615108
615272
615590
615809
616049
616305
616566
616825
617101
617318
617547
617787
618080
618332
618597
618864
619115
619383
619621
619822
620082
620346
620616
620912
621126
621351
621613
621846
622085
622309
622521
622786
623064
623347
623579
623785
624164
624416
624635
625012
625298
625569
625775
626027
626262
626572
626808
627032
627311
627554
627817
628076
628329
628792
629124
629401
629629
629875
630195
630490
630725
630949
631199
631459
631714
631942
632206
632390
632694
632888
633132
633650
634131
634324
634324
634621
634885
635092
635374
635820
636076
636291
636552
636823
637079
637348
637817
638061
638357
638574
638831
639107
639369
639578
639835
640085
640301
640515
640788
641046
641282
641523
641765
642031
642280
642509
642757
643049
643319
643795
644016
644262
644411
644596
644828
645028
645282
645556
645811
646025
646260
646488
646774
646984
647236
647489
647701
647966
648243
648483
648745
648943
649216
649535
649758
649962
