peak_index
674
1273
1273
1467
1655
1850
2047
2237
2434
2632
2833
3021
3220
3409
3603
3806
4008
4201
4401
4593
4785
4976
5173
5375
5571
5772
5963
6157
6347
6543
6743
6942
7135
7334
7522
7715
7914
8107
8302
8498
8700
8899
9095
9284
9481
9682
9882
10075
10274
10462
10656
10850
11042
11236
11433
11636
11827
12022
12214
12410
12607
12808
13006
13204
13392
13585
13781
13978
14174
14369
14568
14763
14957
15146
15339
15536
15736
15929
16127
16321
16513
16707
16906
17095
17297
17499
17695
17887
18081
18272
18472
18671
18866
19061
19254
19446
19636
19834
20026
20223
20419
20615
20809
21004
21193
21388
21591
21791
21991
22185
22375
22571
22728
22953
23155
23351
23555
23744
23936
24127
24328
24526
24726
24921
25116
25305
25498
25697
25894
26092
26288
26487
26681
26881
27070
27263
27462
27662
27855
28050
28242
28435
28630
28825
29021
29217
29418
29618
29813
30006
30207
30407
30610
30802
31004
31194
31389
31587
31782
31978
32177
32378
32570
32765
32960
33153
33349
33550
33748
33946
34136
34335
34531
34728
34927
35123
35323
35523
35720
35912
36106
36304
36507
36698
36899
37088
37283
37477
37676
37872
38069
38268
38467
38661
38856
39049
39249
39447
39643
39844
40037
40230
40421
40622
40811
41006
41206
41403
41595
41791
41981
42178
42380
42582
42777
42967
43165
43361
43561
43739
43953
44156
44356
44549
44748
44939
45135
45333
45530
45728
45921
46122
46306
46507
46701
46904
47101
47296
47490
47682
47877
48072
48270
48468
48666
48860
49052
49243
49445
49631
49832
50014
50232
50421
50618
50814
51010
51209
51409
51605
51800
51994
52189
52384
52575
52777
52973
53172
53363
53559
53751
53931
54142
54328
54535
54718
54923
55113
55310
55505
55701
55894
56099
56290
56485
56675
56870
57068
57269
57443
57659
57847
58041
58238
58427
58625
58822
59025
59213
59408
59603
59796
59995
60179
60396
60581
60784
60979
61176
61371
61570
61767
61966
62158
62355
62548
62742
62938
63142
63315
63537
63727
63922
64118
64311
64503
64706
64906
65101
65293
65487
65676
65884
66084
66280
66479
66666
66861
67050
67243
67438
67632
67833
68019
68230
68421
68615
68815
69020
69215
69411
69602
69804
69999
70195
70388
70591
70787
70986
71176
71371
71549
71765
71964
72161
72362
72555
72748
72942
73140
73335
73535
73737
73937
74132
74330
74526
74721
74923
75121
75322
75512
75703
75886
76100
76291
76488
76686
76884
77075
77274
77463
77661
77852
78064
78253
78457
78653
78846
79043
79239
79436
79632
79830
80022
80217
80410
80606
80802
81003
81188
81394
81584
81781
81982
82178
82383
82578
82779
82975
83171
83359
83560
83758
83957
84152
84351
84539
84734
84932
85123
85322
85524
85722
85914
86113
86306
86503
86707
86907
87101
87288
87442
87675
87884
88078
88275
88468
88668
88860
89052
89240
89438
89636
89838
90018
90232
90424
90621
90822
91011
91211
91410
91615
91807
92002
92201
92397
92591
92786
92983
93168
93381
93571
93768
93965
94167
94362
94561
94753
94953
95146
95341
95537
95735
95924
96128
96301
96508
96685
96900
97094
97286
97491
97681
97875
98068
98264
98463
98663
98859
99059
99251
99444
99646
99821
100036
100236
100437
100637
100834
101024
101219
101419
101618
101810
102010
102183
102398
102596
102792
102993
103189
103392
103588
103789
103977
104173
104373
104583
104776
104974
105167
105365
105558
105748
105950
106130
106350
106522
106742
106940
107133
107330
107533
107731
107929
108119
108318
108507
108708
108896
109103
109303
109499
109696
109885
110077
110279
110481
110673
110873
111062
111258
111452
111627
111846
112027
112251
112449
112646
112845
113037
113234
113437
113631
113827
114019
114211
114401
114597
114793
114993
115177
115391
115579
115783
115974
116175
116377
116575
116775
116968
117159
117353
117537
117746
117943
118149
118344
118536
118730
118924
119120
119320
119516
119717
119909
120102
120295
120499
120679
120898
121097
121299
121493
121687
121884
122083
122283
122481
122682
122873
123067
123216
123456
123649
123850
124054
124251
124445
124641
124834
124998
125237
125440
125636
125830
126025
126224
126421
126615
126818
127019
127213
127405
127604
127794
127991
128197
128396
128593
128784
128982
129181
129378
129520
129764
129971
130166
130361
130558
130749
130948
131154
131350
131544
131735
131932
132123
132322
132518
132715
132916
133114
133307
133503
133698
133902
134101
134297
134453
134688
134888
135083
135283
135475
135625
135868
136065
136260
136454
136649
136852
137050
137246
137444
137637
137831
138024
138225
138418
138617
138822
139017
139210
139403
139599
139805
140004
140198
140400
140591
140786
140981
141182
141374
141574
141776
141970
142168
142368
142561
142760
142924
143162
143363
143557
143753
143949
144147
144344
144539
144737
144937
145134
145323
145516
145714
145923
146117
146314
146503
146710
146904
147101
147299
147500
147697
147892
148088
148289
148479
148676
148881
149076
149280
149467
149659
149856
150054
150246
150442
150645
150839
151036
151233
151429
151628
151831
152030
152228
152418
152616
152813
153007
153199
153399
153599
153794
153988
154187
154379
154575
154779
154980
155175
155369
155569
155761
155958
156155
156357
156556
156753
156951
157148
157334
157531
157732
157934
158126
158289
158511
158711
158907
159096
159294
159494
159672
159891
160087
160282
160479
160678
160878
161075
161269
161459
161653
161850
162038
162240
162426
162636
162819
163026
163221
163414
163613
163819
164016
164213
164404
164608
164804
164996
165188
165397
165585
165796
165991
166180
166376
166586
166782
166982
167166
167373
167545
167764
167948
168161
168358
168564
168759
168951
169142
169339
169547
169749
169939
170139
170335
170527
170709
170924
171110
171322
171509
171722
171915
172103
172305
172515
172715
172913
173107
173306
173484
173700
173884
174095
174284
174498
174691
174883
175080
175284
175483
175684
175883
176074
176272
176464
176648
176864
177042
177269
177448
177667
177859
178053
178253
178459
178656
178850
179039
179236
179431
179625
179809
180019
180207
180416
180610
180809
181004
181204
181407
181602
181807
181997
182184
182386
182567
182784
182983
183183
183374
183570
183761
183958
184154
184356
184537
184751
184914
185139
185336
185530
185725
185927
186130
186326
186510
186716
186909
187108
187316
187507
187704
187894
188079
188282
188467
188676
188873
189072
189265
189461
189656
189852
190049
190257
190446
190663
190852
191047
191243
191443
191635
191828
192019
192228
192421
192613
192798
193010
193211
193403
193599
193794
193990
194184
194384
194578
194768
194983
195179
195377
195573
195773
195972
196171
196367
196567
196761
196956
197147
197351
197539
197740
197927
198143
198340
198534
198732
198930
199135
199303
199532
199724
199920
200118
200312
200504
200686
200908
201102
201295
201493
201688
201883
202086
202282
202483
202676
202870
203070
203273
203466
203666
203853
204064
204236
204457
204658
204857
205058
205251
205455
205645
205839
206018
206234
206427
206625
206813
207028
207222
207417
207616
207814
208016
208214
208417
208606
208800
208997
209194
209389
209586
209789
209984
210178
210372
210568
210767
210970
211168
211372
211561
211759
211953
212154
212353
212527
212752
212950
213152
213340
213534
213737
213940
214132
214327
214521
214721
214917
215110
215310
215513
215718
215910
216110
216308
216506
216704
216904
217100
217308
217501
217690
217887
218082
218286
218484
218687
218879
219084
219274
219467
219677
219868
220071
220254
220471
220665
220869
221058
221260
221461
221659
221851
222049
222240
222436
222624
222839
223034
223231
223429
223620
223819
224011
224219
224414
224614
224811
224992
225208
225382
225608
225792
226015
226209
226400
226595
226800
226987
227186
227385
227592
227782
227977
228152
228374
228566
228780
228980
229136
229372
229566
229770
229965
230165
230365
230568
230761
230944
231152
231336
231558
231757
231909
232144
232343
232536
232743
232938
233136
233339
233543
233709
233930
234130
234331
234534
234732
234933
235123
235321
235516
235718
235911
236110
236316
236515
236712
236907
237108
237309
237509
237708
237909
238104
238307
238505
238703
238899
239107
239309
239505
239702
239900
240095
240294
240500
240698
240895
241086
241284
241487
241684
241882
242082
242289
242486
242683
242877
243079
243280
243483
243678
243881
244071
244266
244470
244664
244864
245064
245270
245464
245661
245857
246055
246256
246462
246663
246861
247052
247252
247453
247645
247850
248048
248249
248443
248644
248835
249032
249239
249441
249638
249837
250033
250226
250425
250622
250832
251030
251229
251428
251630
251822
252020
252228
252430
252627
252819
253017
253211
253411
253606
253805
254003
254203
254402
254596
254791
254998
255203
255402
255602
255797
255995
256189
256390
256584
256784
256990
257183
257380
257578
257774
257972
258176
258378
258576
258769
258970
259166
259366
259567
259767
259976
260174
260373
260570
260766
260967
261174
261366
261564
261760
261953
262153
262349
262539
262750
262959
263156
263353
263552
263751
263954
264161
264356
264556
264751
264945
265149
265343
265549
265744
265947
266141
266337
266531
266729
266940
267140
267336
267537
267741
267939
268140
268338
268538
268739
268944
269138
269333
269529
269730
269932
270132
270336
270528
270725
270922
271119
271315
271520
271725
271922
272121
272320
272512
272718
272926
273123
273326
273520
273717
273911
274112
274310
274506
274710
274909
275108
275300
275498
275702
275910
276096
276311
276504
276704
276908
277102
277303
277509
277711
277906
278096
278300
278494
278701
278902
279099
279286
279498
279683
279894
280086
280294
280492
280699
280901
281100
281291
281491
281697
281903
282094
282294
282474
282688
282873
283078
283278
283481
283682
283876
284079
284271
284469
284674
284878
285078
285275
285470
285655
285875
286056
286270
286452
286675
286858
287065
287252
287462
287664
287859
288062
288256
288452
288645
288847
289037
289235
289442
289624
289843
290039
290237
290434
290636
290835
291042
291232
291425
291602
291817
292012
292212
292416
292611
292802
293005
293201
293399
293604
293806
294008
294197
294393
294592
294787
294982
295166
295385
295563
295788
295970
296176
296385
296584
296778
296977
297174
297375
297569
297766
297966
298177
298367
298575
298772
298971
299175
299375
299578
299775
299979
300171
300359
300568
300756
300965
301163
301374
301577
301769
301962
302169
302379
302579
302775
302973
303175
303368
303568
303767
303974
304173
304366
304570
304770
304966
305166
305376
305527
305769
305949
306166
306369
306565
306767
306968
307178
307375
307572
307771
307971
308171
308362
308577
308759
308970
309153
309374
309568
309774
309970
310177
310376
310573
310766
310967
311177
311385
311569
311785
311974
312179
312380
312578
312780
312978
313180
313377
313572
313764
313967
314175
314376
314574
314764
314964
315137
315363
315566
315772
315973
316173
316367
316574
316767
316970
317175
317371
317572
317765
317966
318169
318311
318453
318751
318965
319159
319359
319553
319756
319952
320164
320358
320556
320748
320951
321146
321341
321542
321735
321930
322132
322315
322720
322928
323132
323326
323526
323724
323921
324120
324319
324520
324698
324922
325122
325318
325512
325714
325915
326115
326309
326516
326707
326896
327091
327304
327495
327703
327916
328110
328310
328510
328707
328913
329120
329320
329505
329716
329914
330118
330313
330518
330718
330923
331119
331317
331515
331718
331880
332121
332307
332525
332727
332868
333111
333316
333523
333726
333924
334129
334321
334518
334723
334926
335128
335331
335519
335720
335924
336123
336321
336522
336735
336931
337131
337328
337532
337736
337941
338138
338335
338534
338734
338937
339128
339332
339538
339737
339895
340133
340333
340533
340739
340946
341146
341343
341548
341744
341947
342147
342346
342552
342755
342953
343146
343345
343547
343754
343951
344153
344343
344540
344744
344939
345139
345344
345552
345747
345950
346147
346345
346548
346756
346954
347154
347348
347546
347746
347941
348146
348349
348549
348741
348938
349132
349327
349537
349746
349944
350140
350337
350535
350738
350939
351141
351341
351541
351737
351933
352123
352318
352525
352722
352920
353113
353314
353505
353703
353898
354103
354306
354502
354703
354900
355092
355293
355497
355694
355894
356087
356281
356474
356673
356869
357070
357275
357474
357674
357864
358060
358265
358474
358668
358872
359063
359259
359451
359645
359843
360042
360244
360395
360627
360820
361012
361208
361414
361613
361810
362000
362193
362388
362590
362783
362982
363186
363389
363586
363780
363980
364184
364390
364588
364791
364985
365180
365380
365581
365781
365983
366189
366392
366591
366788
366993
367203
367408
367606
367814
368011
368208
368410
368615
368820
369017
369224
369424
369623
369818
370020
370232
370433
370634
370835
371034
371235
371440
371642
371845
372052
372258
372458
372653
372854
373065
373271
373469
373678
373871
374069
374272
374474
374676
374878
375088
375285
375484
375685
375892
376102
376283
376508
376688
376910
377084
377313
377492
377718
377918
378117
378316
378516
378701
378912
379119
379337
379505
379692
379899
380127
380306
380527
380734
380934
381125
381330
381512
381732
381918
382133
382311
382485
382716
382914
383122
383314
383515
383719
383911
384129
384323
384523
384712
384933
385133
385339
385535
385731
385919
386135
386321
386527
386721
386932
387119
387327
387526
387729
387933
388137
388335
388531
388727
388876
389028
389326
389536
389740
389941
390129
390338
390538
390736
390941
391142
391345
391533
391733
391940
392137
392337
392539
392748
392927
393143
393347
393546
393752
393958
394160
394355
394556
394755
394953
395150
395356
395556
395758
395959
396145
396355
396536
396770
396968
397176
397372
397573
397769
397973
398175
398373
398579
398778
398978
399170
399369
399576
399773
399973
400179
400376
400574
400774
400973
401174
401376
401586
401785
401986
402180
402389
402570
402795
402983
403196
403393
403592
403794
403989
404195
404400
404600
404801
405002
405195
405380
405606
405807
406008
406199
406409
406605
406809
407011
407217
407418
407619
407825
408016
408215
408421
408624
408822
409017
409222
409420
409627
409822
410026
410228
410438
410639
410837
411034
411239
411447
411650
411851
412052
412225
412451
412656
412852
413059
413258
413462
413665
413861
414055
414262
414474
414658
414874
415077
415279
415474
415673
415883
416082
416294
416490
416689
416886
417089
417294
417481
417701
417904
418095
418295
418501
418649
418899
419106
419310
419506
419707
419904
420106
420312
420517
420719
420910
421112
421310
421506
421705
421909
422115
422312
422516
422711
422906
423112
423322
423520
423725
423923
424120
424304
424525
424727
424930
425137
425329
425533
425715
425926
426133
426324
426544
426738
426934
427133
427344
427536
427739
427949
428154
428351
428549
428732
428958
429164
429368
429571
429763
429962
430163
430365
430565
430768
430977
431171
431374
431572
431781
431985
432193
432398
432605
432799
432994
433205
433399
433603
433806
434015
434210
434408
434607
434813
435018
435223
435430
435626
435824
436026
436227
436427
436633
436847
437043
437240
437444
437648
437851
438060
438262
438463
438654
438856
439062
439256
439464
439667
439869
440067
440270
440473
440675
440884
441090
441301
441494
441698
441902
442106
442302
442506
442718
442914
443112
443314
443518
443721
443927
444132
444338
444533
444734
444941
445145
445349
445555
445765
445961
446167
446367
446573
446774
446980
447186
447387
447580
447777
447989
448188
448391
448596
448806
449007
449203
449405
449617
449832
450029
450231
450431
450636
450836
451033
451241
451450
451651
451848
452056
452259
452461
452663
452872
453079
453279
453479
453689
453893
454089
454297
454510
454717
454916
455112
455318
455527
455735
455932
456138
456341
456543
456743
456944
457156
457359
457565
457761
457972
458175
458377
458591
458797
458997
459195
459394
459602
459807
460005
460206
460418
460623
460824
461021
461229
461437
461642
461843
462055
462257
462457
462661
462867
463073
463276
463488
463690
463889
464087
464299
464509
464705
464912
465115
465318
465516
465719
465929
466131
466338
466538
466751
466951
467150
467354
467570
467777
467977
468179
468374
468581
468783
468983
469189
469395
469602
469797
469995
470204
470422
470621
470822
471022
471234
471439
471634
471841
472054
472260
472458
472664
472866
473067
473268
473476
473685
473883
474075
474286
474492
474691
474898
475112
475314
475514
475710
475919
476129
476338
476539
476749
476950
477146
477349
477539
477761
477956
478169
478371
478577
478772
478977
479190
479398
479602
479799
480002
480209
480407
480614
480798
481033
481230
481437
481636
481830
482034
482247
482442
482653
482836
483046
483237
483460
483650
483866
484068
484284
484480
484679
484877
485099
485295
485498
485688
485904
486095
486295
486480
486710
486912
487113
487309
487517
487714
487919
488134
488337
488537
488735
488939
489140
489334
489548
489742
489947
490150
490360
490555
490757
490963
491173
491371
491568
491774
491977
492165
492377
492590
492800
492997
493201
493402
493601
493804
494016
494221
494420
494614
494813
495022
495217
495418
495624
495809
496031
496232
496429
496626
496845
497037
497256
497450
497655
497855
498063
498263
498466
498675
498879
499073
499269
499475
499677
499874
500090
500278
500491
500671
500898
501093
501311
501512
501716
501921
502125
502320
502522
502737
502942
503141
503335
503538
503743
503928
504315
504560
504761
505165
505367
505572
505780
505986
506189
506377
506588
506782
506988
507196
507402
507612
507805
508006
508206
508415
508623
508820
509027
509202
509429
509629
509836
510046
510241
510447
510650
510859
511052
511250
511461
511659
511867
512069
512265
512472
512679
512872
513074
513283
513491
513688
513944
514072
514302
514503
514711
514921
515112
515314
515518
515721
515923
516125
516335
516530
516735
516934
517133
517336
517549
517754
517950
518138
518292
518543
518744
518957
519169
519369
519567
519770
519971
520173
520383
520565
520791
520986
521188
521394
521592
521794
522002
522208
522404
522610
522817
523018
523223
523427
523636
523839
524039
524245
524449
524646
524854
525002
525253
525447
525664
525865
526065
526278
526487
526686
526884
527093
527299
527495
527699
527908
528121
528318
528524
528729
528925
529119
529340
529547
529750
529942
530139
530344
530553
530763
530963
531169
531375
531584
531781
531983
532199
532409
532613
532803
533014
533222
533419
533619
533827
534041
534233
534436
534638
534848
535051
535254
535461
535642
535873
536010
536162
536469
536684
536886
537090
537299
537494
537689
537896
538108
538307
538508
538707
538910
539110
539309
539517
539725
539932
540134
540341
540538
540746
540961
541163
541366
541572
541772
541970
542177
542376
542580
542787
542989
543195
543389
543591
543801
544009
544217
544421
544621
544827
545035
545230
545438
545649
545854
546057
546259
546460
546662
546873
547080
547282
547478
547684
547893
548088
548295
548508
548720
548918
549124
549332
549535
549742
549952
550162
550361
550557
550754
550965
551171
551371
551577
551783
551992
552188
552386
552592
552811
553018
553219
553414
553617
553833
554036
554240
554444
554655
554862
555060
555257
555467
555682
555879
556083
556283
556492
556690
556895
557103
557307
557521
557727
557928
558124
558331
558548
558753
558957
559158
559363
559564
559765
559965
560174
560386
560585
560786
560986
561196
561408
561616
561823
562032
562227
562427
562631
562839
563047
563186
563322
563558
563799
563995
564201
564414
564625
564827
565024
565221
565423
565636
565837
566038
566244
566454
566654
566857
567055
567267
567483
567683
567883
568084
568287
568489
568689
568898
569100
569308
569513
569720
569916
570118
570332
570545
570746
570946
571149
571356
571558
571760
571973
572165
572376
572580
572787
572987
573189
573398
573603
573814
574012
574211
574416
574624
574837
575037
575245
575442
575648
575854
576061
576267
576467
576679
576883
577082
577278
577485
577685
577901
578089
578305
578493
578723
578923
579130
579344
579555
579750
579948
580143
580366
580559
580766
580958
581182
581385
581581
581780
581998
582211
582408
582604
582816
583006
583225
583424
583628
583834
584050
584244
584444
584628
584725
585070
585271
585474
585679
585883
586078
586268
586496
586699
586903
587074
587315
587513
587715
587929
588138
588337
588535
588734
588931
589149
589342
589544
589722
589963
590170
590364
590564
590777
590986
591154
591389
591591
591789
591990
592193
592404
592586
592812
593016
593213
593411
593619
593826
594026
594230
594431
594627
594828
595039
595235
595436
595632
595853
596053
596251
596442
596667
596874
597073
597275
597481
597685
597886
598082
598295
598501
598702
598852
599095
599293
599501
599718
599923
600125
600325
600533
600734
600936
601139
601350
601561
601760
601965
602169
602366
602556
602782
602988
603188
603361
603580
603788
603994
604202
604401
604606
604810
605020
605222
605426
605639
605848
606051
606229
606459
606638
606860
607073
607274
607479
607680
607890
608085
608291
608501
608704
608910
609087
609323
609522
609730
609908
610138
610344
610550
610759
610952
611151
611362
611574
611769
611973
612172
612381
612580
612757
612987
613202
613410
613592
613790
614021
614224
614433
614643
614845
615047
615251
615446
615651
615854
616061
616262
616447
616672
616860
617073
617282
617497
617696
617903
618105
618302
618509
618710
618921
619122
619329
619534
619734
619931
620119
620353
620555
620759
620961
621166
621368
621565
621773
621984
622192
622390
622590
622799
622983
623212
623415
623625
623832
624029
624225
624433
624636
624839
625043
625249
625450
625650
625852
626060
626276
626475
626679
626885
627088
627291
627476
627706
627914
628120
628324
628524
628724
628933
629140
629347
629557
629750
629957
630161
630316
630563
630775
630983
631183
631393
631594
631795
632007
632216
632419
632622
632817
633025
633216
633440
633645
633852
634057
634264
634458
634662
634870
635078
635283
635496
635684
635895
636078
636306
636519
636722
636926
637131
637331
637526
637732
637946
638149
638353
638539
638759
638964
639162
639360
639584
639794
639994
640199
640402
640604
640812
641026
641232
641429
641632
641834
642035
642234
642445
642657
642855
643054
643257
643446
643669
643881
644087
644295
644490
644688
644901
645105
645311
645513
645722
645924
646120
646318
646529
646741
646939
647147
647347
647544
647748
647954
648163
648366
648518
648762
648974
649174
649373
649577
649790
