Results for: 215.dart
========================================
Total Peaks Detected: 3360
Heart Rate: 111.83 BPM
========================================
Peak indices (3360 peaks):
705, 1295, 1349, 1483, 1670, 1856, 2043, 2223, 2408, 2595, 2787, 2991, 3199, 3400, 3606, 3790, 3973, 4154, 4340, 4522, 4712, 4911, 5112, 5310, 5505, 5691, 5878, 6071, 6259, 6418, 6632, 6818, 7013, 7217, 7414, 7617, 7817, 8020, 8206, 8391, 8571, 8754, 8947, 9101, 9214, 9550, 9746, 9945, 10137, 10324, 10480, 10615, 10876, 11063, 11254, 11450, 11644, 11843, 12051, 12250, 12437, 12619, 12799, 12978, 13161, 13341, 13534, 13733, 13938, 14139, 14333, 14518, 14701, 14886, 15017, 15263, 15456, 15650, 15848, 16044, 16245, 16438, 16636, 16798, 17006, 17182, 17363, 17543, 17731, 17927, 18130, 18328, 18467, 18717, 18901, 19085, 19264, 19443, 19553, 19817, 20012, 20211, 20403, 20596, 20795, 20997, 21181, 21361, 21538, 21720, 21903, 22100, 22284, 22487, 22688, 22895, 23088, 23281, 23460, 23639, 23823, 24016, 24206, 24407, 24602, 24801, 25009, 25203, 25394, 25575, 25760, 25940, 26072, 26310, 26501, 26706, 26923, 27127, 27329, 27512, 27650, 27763, 28057, 28243, 28430, 28629, 28824, 29022, 29213, 29401, 29591, 29779, 29958, 30139, 30316, 30492, 30676, 30823, 31066, 31267, 31469, 31671, 31858, 32041, 32218, 32397, 32586, 32783, 32979, 33181, 33376, 33574, 33774, 33962, 34147, 34330, 34517, 34704, 34846, 35084, 35280, 35485, 35704, 35906, 36055, 36283, 36464, 36647, 36829, 37018, 37210, 37413, 37611, 37812, 38007, 38198, 38355, 38570, 38746, 38931, 39111, 39297, 39479, 39678, 39871, 40077, 40276, 40467, 40647, 40829, 41008, 41193, 41384, 41580, 41778, 41979, 42175, 42370, 42562, 42743, 42931, 43116, 43308, 43492, 43687, 43879, 44077, 44282, 44493, 44686, 44877, 45055, 45235, 45420, 45602, 45792, 45986, 46159, 46393, 46593, 46786, 46970, 47151, 47336, 47519, 47707, 47894, 48081, 48270, 48473, 48666, 48863, 49051, 49238, 49418, 49598, 49774, 49953, 50145, 50348, 50550, 50753, 50948, 51129, 51332, 51514, 51691, 51877, 52068, 52263, 52457, 52659, 52855, 53058, 53260, 53454, 53639, 53821, 53995, 54177, 54366, 54560, 54756, 54953, 55161, 55361, 55554, 55733, 55908, 56089, 56280, 56468, 56658, 56851, 57048, 57239, 57394, 57624, 57813, 57992, 58170, 58344, 58504, 58712, 58901, 59038, 59303, 59500, 59701, 59878, 60059, 60196, 60421, 60596, 60781, 60970, 61169, 61366, 61566, 61755, 61946, 62135, 62306, 62504, 62685, 62866, 63058, 63257, 63448, 63648, 63850, 64060, 64242, 64423, 64556, 64974, 65167, 65290, 65568, 65763, 65962, 66155, 66348, 66525, 66703, 66880, 67063, 67243, 67438, 67626, 67821, 68029, 68241, 68438, 68438, 68497, 68623, 68799, 68971, 69149, 69331, 69521, 69714, 69915, 70112, 70315, 70460, 70507, 70539, 70686, 70869, 71053, 71231, 71422, 71546, 71681, 71990, 72198, 72391, 72589, 72785, 72931, 73145, 73320, 73496, 73680, 73872, 74068, 74259, 74461, 74650, 74843, 75029, 75210, 75394, 75571, 75762, 75943, 76139, 76327, 76522, 76721, 76922, 77109, 77297, 77474, 77651, 77825, 78010, 78194, 78391, 78590, 78790, 78990, 79184, 79363, 79545, 79730, 79916, 80106, 80297, 80484, 80677, 80874, 81063, 81264, 81453, 81640, 81818, 82001, 82181, 82349, 82556, 82761, 82963, 83169, 83361, 83553, 83733, 83911, 84087, 84242, 84459, 84651, 84847, 85047, 85246, 85439, 85637, 85827, 86006, 86185, 86361, 86542, 86722, 86903, 87094, 87291, 87490, 87690, 87884, 88066, 88241, 88417, 88599, 88787, 88977, 89173, 89364, 89562, 89762, 89951, 90134, 90311, 90494, 90670, 90854, 91035, 91226, 91428, 91641, 91843, 92037, 92224, 92406, 92588, 92772, 92946, 93131, 93321, 93527, 93694, 93926, 94120, 94311, 94502, 94694, 94875, 95061, 95241, 95431, 95619, 95823, 96023, 96230, 96432, 96627, 96811, 96997, 97178, 97364, 97558, 97759, 97959, 98165, 98363, 98552, 98743, 98927, 99114, 99301, 99499, 99680, 99880, 100073, 100273, 100476, 100687, 100880, 101070, 101252, 101433, 101621, 101809, 102002, 102203, 102409, 102606, 102748, 102985, 103178, 103367, 103561, 103747, 103941, 104132, 104329, 104527, 104734, 104928, 105128, 105318, 105504, 105678, 105851, 106028, 106213, 106414, 106626, 106836, 107049, 107240, 107428, 107613, 107791, 107974, 108163, 108365, 108563, 108766, 108961, 109162, 109366, 109565, 109745, 109926, 110062, 110190, 110463, 110663, 110853, 111053, 111253, 111455, 111643, 111826, 112002, 112182, 112361, 112553, 112742, 112942, 113138, 113340, 113544, 113734, 113921, 114099, 114283, 114461, 114655, 114838, 115030, 115231, 115442, 115644, 115851, 116037, 116220, 116397, 116576, 116756, 116944, 117144, 117344, 117503, 117744, 117931, 118120, 118307, 118487, 118668, 118851, 119027, 119175, 119402, 119589, 119793, 119990, 120193, 120378, 120559, 120734, 120913, 121102, 121297, 121486, 121689, 121881, 122083, 122282, 122470, 122653, 122836, 123023, 123209, 123401, 123591, 123782, 123986, 124202, 124410, 124609, 124791, 124971, 125150, 125337, 125519, 125714, 125911, 126115, 126316, 126520, 126709, 126893, 127081, 127265, 127443, 127636, 127818, 128016, 128220, 128418, 128618, 128816, 129012, 129195, 129380, 129562, 129747, 129938, 130146, 130352, 130562, 130765, 130968, 131157, 131341, 131473, 131706, 131898, 132092, 132287, 132485, 132677, 132880, 133083, 133279, 133461, 133643, 133816, 133993, 134183, 134373, 134564, 134759, 134966, 135170, 135373, 135560, 135738, 135921, 136114, 136305, 136500, 136693, 136889, 137083, 137244, 137476, 137669, 137830, 138039, 138215, 138401, 138581, 138774, 138980, 139192, 139392, 139593, 139777, 139961, 140146, 140330, 140516, 140703, 140903, 141101, 141305, 141508, 141705, 141898, 142090, 142273, 142457, 142640, 142827, 143018, 143222, 143417, 143629, 143836, 144039, 144222, 144404, 144583, 144768, 144963, 145165, 145364, 145572, 145770, 145922, 146174, 146356, 146543, 146722, 146915, 147051, 147297, 147489, 147686, 147889, 148112, 148310, 148503, 148673, 148850, 149029, 149217, 149409, 149618, 149832, 150050, 150255, 150454, 150636, 150820, 151010, 151202, 151400, 151590, 151786, 151985, 152192, 152395, 152602, 152796, 152979, 153157, 153337, 153524, 153721, 153858, 153989, 154183, 154350, 154553, 154754, 154939, 155123, 155286, 155489, 155683, 155846, 156076, 156277, 156477, 156684, 156892, 157085, 157270, 157451, 157633, 157816, 158008, 158195, 158400, 158554, 158823, 159017, 159209, 159390, 159576, 159762, 159954, 160141, 160339, 160534, 160734, 160939, 161131, 161326, 161510, 161698, 161876, 162063, 162215, 162433, 162633, 162849, 163052, 163259, 163444, 163626, 163808, 163990, 164176, 164364, 164562, 164759, 164963, 165164, 165362, 165562, 165754, 165935, 166119, 166298, 166486, 166668, 166866, 167054, 167264, 167473, 167678, 167860, 168044, 168223, 168406, 168599, 168794, 168991, 169198, 169398, 169599, 169797, 169983, 170170, 170352, 170537, 170724, 170917, 171107, 171298, 171498, 171711, 171915, 172118, 172297, 172475, 172652, 172838, 173020, 173218, 173351, 173618, 173812, 174015, 174204, 174390, 174572, 174754, 174928, 175119, 175297, 175488, 175675, 175871, 176062, 176261, 176455, 176638, 176817, 176998, 177175, 177358, 177553, 177759, 177960, 178106, 178355, 178547, 178716, 178913, 179094, 179276, 179467, 179610, 179715, 180053, 180217, 180458, 180664, 180855, 181039, 181219, 181399, 181580, 181769, 181956, 182160, 182363, 182573, 182769, 182933, 183140, 183319, 183503, 183696, 183882, 184078, 184267, 184465, 184667, 184867, 185057, 185244, 185427, 185606, 185793, 185981, 186168, 186364, 186575, 186787, 186997, 187194, 187380, 187558, 187741, 187919, 188116, 188315, 188529, 188728, 188934, 189130, 189329, 189527, 189652, 189897, 190083, 190268, 190457, 190662, 190861, 191067, 191269, 191475, 191662, 191847, 191997, 192124, 192400, 192603, 192803, 193013, 193211, 193416, 193615, 193799, 193981, 194160, 194345, 194528, 194716, 194899, 195087, 195289, 195501, 195702, 195894, 196070, 196248, 196424, 196610, 196789, 196983, 197181, 197389, 197592, 197796, 197989, 198176, 198363, 198546, 198731, 198921, 199111, 199303, 199506, 199700, 199880, 200112, 200304, 200482, 200661, 200837, 201024, 201215, 201418, 201617, 201832, 202023, 202218, 202404, 202545, 202768, 202948, 203139, 203319, 203511, 203703, 203897, 204101, 204309, 204471, 204682, 204857, 205040, 205217, 205405, 205589, 205792, 205998, 206159, 206273, 206595, 206783, 206964, 207147, 207333, 207525, 207722, 207909, 208104, 208307, 208505, 208707, 208895, 209082, 209263, 209444, 209632, 209817, 210016, 210224, 210429, 210637, 210835, 211027, 211206, 211388, 211563, 211750, 211941, 212141, 212329, 212483, 212718, 212914, 213070, 213305, 213484, 213664, 213839, 214026, 214216, 214408, 214605, 214803, 215009, 215208, 215395, 215574, 215749, 215931, 216121, 216312, 216507, 216703, 216898, 217093, 217298, 217485, 217673, 217854, 218042, 218224, 218413, 218599, 218795, 218966, 219219, 219417, 219616, 219798, 219982, 220164, 220347, 220534, 220727, 220930, 221138, 221343, 221548, 221743, 221887, 222122, 222305, 222494, 222681, 222875, 223034, 223277, 223468, 223676, 223873, 224066, 224248, 224430, 224607, 224787, 224979, 225183, 225383, 225591, 225785, 225978, 226166, 226348, 226532, 226716, 226912, 227100, 227297, 227496, 227696, 227904, 228115, 228307, 228496, 228678, 228863, 229051, 229248, 229442, 229649, 229861, 230073, 230282, 230477, 230661, 230846, 231035, 231231, 231429, 231626, 231828, 232029, 232232, 232424, 232574, 232810, 232992, 233168, 233348, 233530, 233726, 233941, 234152, 234287, 234563, 234756, 234943, 235132, 235311, 235455, 235692, 235891, 236090, 236295, 236446, 236693, 236895, 237086, 237272, 237453, 237638, 237823, 238019, 238212, 238419, 238626, 238840, 239038, 239225, 239404, 239586, 239778, 239975, 240173, 240375, 240574, 240771, 240977, 241169, 241365, 241554, 241744, 241927, 242116, 242285, 242510, 242724, 242949, 243159, 243356, 243539, 243719, 243906, 244087, 244281, 244473, 244678, 244880, 245085, 245282, 245479, 245623, 245853, 246028, 246211, 246391, 246577, 246773, 246962, 247165, 247368, 247575, 247761, 247944, 248121, 248301, 248491, 248691, 248886, 249093, 249292, 249497, 249697, 249893, 250081, 250265, 250451, 250641, 250832, 251027, 251222, 251424, 251632, 251837, 252036, 252222, 252405, 252583, 252768, 252946, 253142, 253342, 253554, 253753, 253954, 254140, 254329, 254518, 254707, 254894, 255084, 255267, 255459, 255661, 255859, 256066, 256263, 256453, 256632, 256815, 256996, 257180, 257376, 257580, 257778, 257985, 258182, 258381, 258567, 258751, 258928, 259108, 259292, 259483, 259671, 259871, 260060, 260256, 260435, 260576, 260842, 261029, 261204, 261385, 261574, 261767, 261968, 262173, 262386, 262588, 262788, 262974, 263160, 263346, 263539, 263728, 263929, 264075, 264330, 264529, 264731, 264921, 265113, 265300, 265485, 265670, 265857, 266040, 266232, 266440, 266648, 266852, 267047, 267226, 267405, 267587, 267724, 267953, 268140, 268343, 268539, 268745, 268943, 269141, 269336, 269526, 269706, 269892, 270077, 270268, 270462, 270663, 270865, 271075, 271287, 271484, 271670, 271852, 272033, 272224, 272425, 272628, 272837, 273037, 273239, 273440, 273641, 273831, 274016, 274204, 274395, 274590, 274787, 274985, 275191, 275410, 275619, 275822, 276004, 276190, 276370, 276558, 276747, 276949, 277162, 277368, 277571, 277766, 277958, 278152, 278344, 278527, 278717, 278899, 279099, 279300, 279505, 279664, 279909, 280105, 280287, 280468, 280643, 280815, 281001, 281198, 281402, 281611, 281811, 282007, 282194, 282383, 282563, 282750, 282938, 283131, 283321, 283522, 283723, 283933, 284148, 284354, 284544, 284729, 284911, 285094, 285290, 285475, 285680, 285890, 286105, 286309, 286508, 286694, 286881, 287071, 287263, 287456, 287650, 287845, 288043, 288252, 288452, 288658, 288851, 289036, 289214, 289396, 289581, 289774, 289980, 290190, 290390, 290594, 290790, 290979, 291165, 291339, 291520, 291703, 291900, 292092, 292291, 292482, 292675, 292855, 293081, 293265, 293449, 293622, 293807, 293992, 294188, 294386, 294589, 294796, 294998, 295194, 295382, 295566, 295751, 295942, 296135, 296335, 296536, 296739, 296933, 297135, 297324, 297515, 297701, 297889, 298071, 298258, 298440, 298637, 298846, 299061, 299265, 299463, 299645, 299828, 300014, 300193, 300379, 300565, 300765, 300927, 301163, 301360, 301551, 301736, 301923, 302104, 302288, 302474, 302658, 302843, 303045, 303238, 303444, 303647, 303851, 304033, 304219, 304397, 304583, 304780, 304988, 305188, 305401, 305597, 305801, 305998, 306184, 306371, 306556, 306751, 306941, 307142, 307335, 307535, 307744, 307961, 308161, 308354, 308536, 308717, 308900, 309091, 309286, 309491, 309704, 309907, 310109, 310302, 310491, 310678, 310868, 311008, 311248, 311434, 311633, 311833, 312039, 312234, 312431, 312618, 312798, 312974, 313150, 313328, 313510, 313706, 313912, 314113, 314322, 314513, 314699, 314881, 315060, 315245, 315432, 315632, 315795, 316029, 316225, 316427, 316635, 316841, 317024, 317208, 317384, 317570, 317760, 317955, 318162, 318365, 318577, 318777, 318977, 319163, 319308, 319537, 319729, 319920, 320127, 320325, 320531, 320739, 320934, 321131, 321319, 321511, 321693, 321886, 322070, 322262, 322468, 322692, 322905, 323111, 323298, 323481, 323660, 323836, 324024, 324146, 324419, 324616, 324821, 325020, 325219, 325420, 325616, 325797, 325980, 326159, 326350, 326545, 326747, 326953, 327156, 327372, 327573, 327766, 327951, 328132, 328321, 328520, 328675, 328930, 329131, 329334, 329535, 329731, 329924, 330113, 330304, 330489, 330677, 330868, 331066, 331277, 331494, 331696, 331897, 332080, 332266, 332450, 332631, 332816, 333005, 333206, 333403, 333603, 333800, 333987, 334171, 334352, 334532, 334714, 334903, 335088, 335278, 335481, 335674, 335884, 336089, 336290, 336475, 336658, 336838, 337024, 337224, 337434, 337639, 337848, 338048, 338249, 338447, 338634, 338822, 339006, 339200, 339386, 339589, 339786, 339989, 340194, 340404, 340597, 340789, 340971, 341155, 341340, 341522, 341717, 341919, 342130, 342330, 342528, 342714, 342895, 343078, 343265, 343452, 343642, 343831, 344022, 344218, 344422, 344613, 344809, 344993, 345179, 345355, 345537, 345714, 345898, 346093, 346307, 346515, 346650, 346913, 347098, 347280, 347465, 347640, 347822, 348004, 348203, 348391, 348592, 348784, 348982, 349179, 349365, 349538, 349688, 349887, 350070, 350253, 350439, 350628, 350828, 351036, 351236, 351420, 351598, 351773, 351955, 352144, 352288, 352527, 352726, 352923, 353117, 353316, 353503, 353693, 353874, 354057, 354232, 354420, 354606, 354797, 354982, 354982, 354982, 355149, 355423, 355625, 355808, 355989, 356170, 356350, 356540, 356732, 356937, 357144, 357350, 357548, 357740, 357877, 358121, 358303, 358490, 358672, 358859, 359051, 359257, 359456, 359666, 359872, 360063, 360243, 360421, 360600, 360789, 360992, 361196, 361407, 361615, 361816, 362010, 362204, 362388, 362576, 362757, 362944, 363128, 363323, 363519, 363722, 363930, 364135, 364285, 364443, 364685, 364865, 365034, 365233, 365426, 365622, 365842, 366049, 366254, 366438, 366623, 366766, 366997, 367178, 367372, 367557, 367753, 367952, 368153, 368360, 368558, 368753, 368932, 369116, 369298, 369484, 369679, 369885, 370088, 370299, 370497, 370695, 370883, 371068, 371254, 371441, 371637, 371822, 372020, 372217, 372394, 372622, 372772, 373022, 373209, 373388, 373565, 373742, 373931, 374120, 374322, 374530, 374732, 374928, 375120, 375304, 375490, 375681, 375872, 376065, 376261, 376455, 376655, 376860, 377049, 377248, 377439, 377628, 377809, 377993, 378172, 378368, 378571, 378781, 378984, 379194, 379343, 379577, 379767, 379951, 380135, 380324, 380528, 380730, 380939, 381141, 381340, 381542, 381740, 381926, 382115, 382293, 382482, 382675, 382876, 383079, 383283, 383497, 383699, 383894, 384039, 384266, 384450, 384653, 384852, 385065, 385274, 385478, 385677, 385877, 386067, 386258, 386446, 386637, 386825, 387023, 387221, 387374, 387649, 387863, 388063, 388248, 388430, 388611, 388803, 388988, 389187, 389383, 389590, 389787, 389991, 390180, 390367, 390553, 390736, 390923, 391119, 391306, 391500, 391707, 391907, 392121, 392325, 392523, 392704, 392890, 393075, 393267, 393467, 393680, 393892, 394107, 394308, 394506, 394699, 394882, 395073, 395260, 395457, 395648, 395851, 396049, 396257, 396470, 396676, 396865, 397049, 397226, 397410, 397604, 397797, 398005, 398209, 398424, 398626, 398829, 399019, 399207, 399394, 399588, 399758, 399986, 400186, 400394, 400605, 400804, 401009, 401200, 401391, 401574, 401762, 401944, 402139, 402350, 402573, 402790, 403001, 403123, 403378, 403565, 403744, 403937, 404132, 404334, 404532, 404743, 404943, 405146, 405306, 405538, 405712, 405892, 406075, 406266, 406463, 406655, 406864, 407070, 407285, 407481, 407670, 407849, 408029, 408221, 408423, 408617, 408824, 409018, 409221, 409431, 409626, 409818, 410003, 410192, 410377, 410572, 410758, 410928, 411168, 411384, 411587, 411789, 411974, 412158, 412347, 412526, 412718, 412911, 413118, 413317, 413522, 413721, 413914, 414104, 414292, 414472, 414659, 414845, 415035, 415229, 415421, 415623, 415829, 416036, 416222, 416404, 416584, 416763, 416951, 417153, 417352, 417557, 417754, 417957, 418152, 418348, 418530, 418714, 418900, 419091, 419279, 419471, 419662, 419869, 420086, 420298, 420494, 420677, 420859, 421039, 421228, 421409, 421605, 421802, 422014, 422212, 422417, 422604, 422787, 422970, 423158, 423341, 423535, 423722, 423920, 424116, 424320, 424521, 424724, 424915, 425100, 425284, 425468, 425654, 425853, 426062, 426275, 426489, 426695, 426894, 427083, 427268, 427447, 427635, 427829, 428033, 428231, 428437, 428632, 428836, 428982, 429240, 429426, 429610, 429787, 429972, 430168, 430360, 430512, 430765, 430967, 431158, 431350, 431530, 431712, 431894, 432088, 432276, 432477, 432671, 432874, 433071, 433270, 433459, 433650, 433840, 434024, 434210, 434395, 434586, 434790, 435006, 435215, 435369, 435616, 435802, 435986, 436174, 436358, 436554, 436757, 436964, 437172, 437381, 437582, 437783, 437976, 438163, 438351, 438542, 438737, 438936, 439145, 439292, 439560, 439773, 439973, 440159, 440342, 440521, 440710, 440910, 441110, 441324, 441537, 441739, 441932, 442123, 442306, 442493, 442680, 442870, 443059, 443184, 443430, 443674, 443896, 444106, 444303, 444486, 444673, 444857, 445050, 445238, 445443, 445656, 445873, 446088, 446290, 446479, 446669, 446863, 447052, 447251, 447438, 447641, 447842, 448050, 448258, 448461, 448661, 448845, 449034, 449219, 449413, 449560, 449828, 450034, 450253, 450452, 450653, 450843, 451021, 451205, 451388, 451584, 451770, 451966, 452154, 452346, 452482, 452761, 452950, 453135, 453309, 453489, 453671, 453862, 454059, 454260, 454466, 454668, 454872, 455065, 455252, 455438, 455628, 455816, 456013, 456206, 456410, 456612, 456814, 457016, 457216, 457413, 457602, 457787, 457938, 458157, 458356, 458571, 458782, 458921, 459194, 459386, 459571, 459758, 459942, 460088, 460323, 460518, 460716, 460919, 461116, 461319, 461516, 461701, 461880, 462057, 462237, 462418, 462609, 462795, 463001, 463205, 463419, 463613, 463804, 463980, 464163, 464351, 464556, 464750, 464960, 465157, 465363, 465568, 465769, 465964, 466154, 466347, 466533, 466727, 466919, 467121, 467333, 467554, 467760, 467964, 468146, 468332, 468515, 468702, 468896, 469093, 469306, 469508, 469654, 470107, 470305, 470499, 470682, 470869, 471052, 471240, 471431, 471633, 471824, 472028, 472220, 472408, 472581, 472761, 472935, 473120, 473315, 473523, 473726, 473934, 474131, 474330, 474524, 474709, 474897, 475080, 475274, 475461, 475663, 475859, 476058, 476266, 476482, 476677, 476869, 477051, 477236, 477424, 477612, 477812, 478020, 478240, 478447, 478653, 478838, 479025, 479216, 479410, 479602, 479799, 479988, 480150, 480393, 480597, 480801, 480992, 481177, 481352, 481529, 481710, 481894, 482043, 482316, 482709, 482924, 483116, 483302, 483483, 483664, 483845, 484039, 484240, 484453, 484658, 484866, 485013, 485264, 485459, 485643, 485828, 486014, 486209, 486405, 486612, 486813, 487026, 487239, 487441, 487630, 487813, 487992, 488181, 488383, 488586, 488796, 488999, 489205, 489401, 489597, 489786, 489973, 490159, 490345, 490530, 490723, 490917, 491125, 491337, 491545, 491741, 491923, 492106, 492286, 492474, 492655, 492853, 493059, 493268, 493474, 493673, 493864, 494055, 494246, 494432, 494620, 494805, 494996, 495192, 495401, 495598, 495808, 496011, 496203, 496387, 496571, 496754, 496946, 497145, 497348, 497556, 497763, 497970, 498164, 498354, 498534, 498722, 498910, 499103, 499290, 499484, 499675, 499875, 500084, 500294, 500481, 500664, 500838, 501019, 501209, 501395, 501591, 501791, 502010, 502166, 502425, 502613, 502799, 502984, 503173, 503364, 503560, 503753, 503954, 504150, 504355, 504555, 504753, 504944, 505125, 505306, 505494, 505681, 505882, 506097, 506310, 506522, 506725, 506919, 507106, 507295, 507472, 507661, 507856, 508062, 508264, 508470, 508663, 508863, 509060, 509253, 509439, 509583, 509805, 509990, 510190, 510317, 510597, 510805, 511017, 511209, 511398, 511581, 511765, 511952, 512146, 512338, 512541, 512734, 512929, 513118, 513308, 513490, 513675, 513859, 514043, 514228, 514415, 514606, 514807, 515023, 515235, 515434, 515621, 515805, 515990, 516179, 516364, 516560, 516759, 516918, 517173, 517380, 517576, 517763, 517953, 518140, 518326, 518520, 518703, 518895, 519094, 519290, 519498, 519699, 519894, 520070, 520250, 520426, 520595, 520805, 521011, 521210, 521429, 521633, 521838, 522033, 522219, 522403, 522585, 522782, 522976, 523126, 523375, 523577, 523790, 524010, 524207, 524398, 524576, 524754, 524940, 525130, 525329, 525538, 525766, 525976, 526131, 526238, 526545, 526707, 526924, 527110, 527301, 527484, 527679, 527875, 528076, 528268, 528461, 528643, 528822, 528997, 529183, 529361, 529550, 529751, 529963, 530169, 530380, 530571, 530701, 530937, 531113, 531299, 531486, 531685, 531837, 532079, 532271, 532470, 532673, 532870, 533051, 533197, 533405, 533586, 533773, 533963, 534164, 534364, 534575, 534712, 534968, 535149, 535317, 535510, 535702, 535889, 536088, 536276, 536471, 536664, 536864, 537057, 537245, 537426, 537606, 537785, 537974, 538160, 538357, 538567, 538778, 538988, 539186, 539372, 539518, 539740, 539917, 540109, 540304, 540506, 540705, 540857, 540992, 541298, 541498, 541688, 541868, 542054, 542235, 542424, 542622, 542816, 543018, 543219, 543431, 543623, 543813, 543993, 544176, 544360, 544559, 544753, 544963, 545161, 545315, 545550, 545742, 545924, 546108, 546290, 546472, 546653, 546842, 547032, 547233, 547378, 547652, 547847, 548039, 548220, 548400, 548582, 548762, 548956, 549154, 549367, 549566, 549771, 549969, 550158, 550348, 550540, 550721, 550919, 551106, 551306, 551506, 551708, 551907, 552110, 552307, 552496, 552681, 552860, 553042, 553234, 553444, 553654, 553864, 554064, 554253, 554440, 554627, 554806, 554991, 555173, 555362, 555550, 555754, 555945, 556144, 556348, 556547, 556731, 556917, 557093, 557274, 557461, 557650, 557853, 558058, 558270, 558472, 558674, 558861, 559047, 559234, 559428, 559619, 559822, 560020, 560226, 560434, 560637, 560836, 561029, 561222, 561406, 561526, 561785, 561977, 562186, 562431, 562658, 562876, 563069, 563253, 563438, 563618, 563808, 564005, 564215, 564413, 564620, 564816, 565013, 565211, 565402, 565577, 565756, 565936, 566126, 566316, 566519, 566712, 566859, 567132, 567332, 567523, 567705, 567886, 568076, 568279, 568479, 568690, 568890, 569097, 569299, 569499, 569689, 569875, 570065, 570251, 570449, 570643, 570842, 571055, 571278, 571484, 571685, 571870, 572058, 572244, 572428, 572620, 572815, 572969, 573112, 573450, 573653, 573845, 574036, 574226, 574409, 574601, 574787, 574982, 575182, 575380, 575588, 575793, 575994, 576176, 576357, 576531, 576710, 576902, 577100, 577294, 577502, 577694, 577897, 578093, 578280, 578464, 578644, 578836, 579028, 579228, 579379, 579515, 579833, 580053, 580257, 580452, 580633, 580815, 581002, 581190, 581387, 581592, 581812, 582026, 582232, 582427, 582615, 582806, 582997, 583189, 583387, 583577, 583780, 583986, 584190, 584399, 584598, 584792, 584923, 585164, 585349, 585536, 585731, 585944, 586152, 586365, 586503, 586761, 586944, 587127, 587303, 587491, 587682, 587876, 588013, 588261, 588450, 588647, 588851, 589045, 589225, 589366, 589580, 589761, 589953, 590146, 590344, 590544, 590758, 590960, 591158, 591347, 591530, 591715, 591913, 592107, 592314, 592512, 592718, 592916, 593119, 593311, 593506, 593699, 593884, 594070, 594256, 594450, 594657, 594877, 595089, 595292, 595415, 595811, 596027, 596201, 596390, 596583, 596790, 596990, 597196, 597384, 597575, 597766, 597955, 598140, 598330, 598512, 598703, 598906, 599106, 599317, 599525, 599734, 599918, 600106, 600288, 600477, 600623, 600888, 601096, 601314, 601516, 601723, 601926, 602111, 602298, 602483, 602682, 602875, 603079, 603279, 603437, 603697, 603915, 604117, 604308, 604488, 604666, 604859, 605046, 605254, 605413, 605671, 605864, 606066, 606251, 606435, 606619, 606799, 606984, 607176, 607363, 607563, 607767, 607965, 608166, 608365, 608560, 608742, 608927, 609104, 609292, 609493, 609709, 609916, 610131, 610325, 610524, 610713, 610896, 611085, 611273, 611474, 611663, 611867, 612068, 612272, 612487, 612698, 612884, 613070, 613249, 613433, 613630, 613818, 614024, 614224, 614446, 614650, 614852, 615039, 615225, 615410, 615568, 615795, 615992, 616189, 616390, 616598, 616790, 616989, 617176, 617363, 617542, 617720, 617861, 618082, 618280, 618508, 618752, 618954, 619138, 619321, 619505, 619684, 619865, 620051, 620247, 620440, 620645, 620848, 621047, 621244, 621436, 621620, 621808, 621988, 622140, 622363, 622562, 622759, 622972, 623187, 623398, 623590, 623772, 623953, 624138, 624341, 624544, 624754, 624960, 625162, 625364, 625572, 625762, 625953, 626135, 626321, 626507, 626700, 626893, 627094, 627300, 627509, 627707, 627896, 628075, 628254, 628434, 628610, 628797, 628990, 629158, 629400, 629600, 629790, 629979, 630168, 630360, 630543, 630733, 630913, 631103, 631296, 631502, 631699, 631906, 632106, 632298, 632483, 632671, 632855, 633049, 633252, 633458, 633670, 633882, 634031, 634285, 634479, 634658, 634845, 635035, 635237, 635434, 635636, 635830, 636030, 636244, 636455, 636641, 636820, 636993, 637169, 637361, 637544, 637689, 637939, 638144, 638344, 638544, 638729, 638911, 639096, 639280, 639467, 639659, 639853, 640056, 640261, 640472, 640617, 640865, 641051, 641239, 641421, 641612, 641795, 641994, 642210, 642506, 642724, 642927, 643113, 643295, 643482, 643665, 643865, 644068, 644237, 644382, 644740, 644943, 645142, 645338, 645523, 645707, 645896, 646083, 646280, 646489, 646689, 646898, 647105, 647255, 647494, 647676, 647856, 648046, 648251, 648459, 648678, 648901, 649109, 649306, 649502, 649686, 649876
