Results for: 217.dart
========================================
Total Peaks Detected: 2220
Heart Rate: 73.93 BPM
========================================
Peak indices (2220 peaks):
805, 1734, 2027, 2318, 2318, 2621, 2621, 2920, 2920, 3228, 3537, 3850, 4146, 4487, 4713, 5076, 5392, 5657, 6018, 6254, 6543, 6846, 7144, 7455, 7767, 8072, 8375, 8666, 8949, 9305, 9610, 9939, 10243, 10540, 10770, 11062, 11353, 11664, 11991, 12352, 12653, 12889, 13174, 13476, 13696, 14009, 14320, 14628, 14929, 15215, 15498, 15795, 16116, 16434, 16729, 17030, 17319, 17605, 17915, 18219, 18528, 18901, 19141, 19432, 19716, 20009, 20316, 20634, 20946, 21247, 21538, 21818, 22124, 22437, 22755, 23063, 23369, 23661, 23952, 24252, 24608, 24857, 25172, 25479, 25777, 26059, 26350, 26648, 26961, 27277, 27583, 27875, 28167, 28464, 28760, 28970, 29297, 29532, 29848, 30146, 30433, 30728, 31021, 31236, 31575, 31821, 32128, 32365, 32664, 32892, 33210, 33531, 33837, 34137, 34436, 34724, 35017, 35308, 35611, 35921, 36231, 36531, 36818, 37101, 37393, 37717, 38033, 38332, 38633, 38923, 39213, 39517, 39824, 40140, 40446, 40700, 41003, 41294, 41584, 41891, 42206, 42517, 42826, 43118, 43398, 43701, 44023, 44354, 44662, 44967, 45257, 45548, 45858, 46171, 46548, 46799, 47108, 47405, 47683, 48031, 48271, 48648, 48905, 49271, 49560, 49792, 50094, 50397, 50772, 51019, 51380, 51680, 51974, 52266, 52561, 52816, 53197, 53504, 53796, 54079, 54367, 54666, 54991, 55304, 55608, 55909, 56203, 56496, 56790, 57090, 57346, 57656, 57859, 58171, 58443, 58733, 59101, 59424, 59679, 59979, 60278, 60564, 60855, 61164, 61473, 61779, 62089, 62449, 62681, 63027, 63264, 63633, 63955, 64203, 64560, 64794, 65075, 65361, 65555, 65953, 66259, 66566, 66858, 67093, 67358, 67613, 67801, 68179, 68495, 68495, 68797, 69086, 69368, 69665, 69965, 70276, 70528, 70894, 71180, 71473, 71712, 72072, 72384, 72629, 72989, 73233, 73584, 73809, 74103, 74393, 74605, 74934, 75238, 75529, 75715, 76076, 76380, 76698, 77011, 77311, 77611, 77904, 78139, 78493, 78803, 79111, 79422, 79722, 80010, 80298, 80592, 80916, 81234, 81534, 81834, 82129, 82418, 82717, 83035, 83352, 83657, 83904, 84200, 84497, 84790, 85099, 85299, 85629, 85882, 86196, 86486, 86773, 87149, 87407, 87779, 88025, 88326, 88615, 88969, 89266, 89578, 89890, 90203, 90443, 90735, 91020, 91322, 91630, 91953, 92261, 92563, 92849, 93142, 93329, 93646, 93889, 94215, 94502, 94787, 95070, 95363, 95628, 95809, 96136, 96454, 96762, 97053, 97336, 97626, 97930, 98261, 98574, 98873, 99173, 99470, 99765, 100060, 100374, 100686, 101000, 101305, 101594, 101879, 102176, 102504, 102827, 103128, 103424, 103715, 104005, 104309, 104625, 104940, 105246, 105554, 105763, 106062, 106307, 106619, 106860, 107191, 107499, 107711, 108022, 108302, 108606, 108989, 109238, 109533, 109835, 110124, 110471, 110704, 111005, 111309, 111624, 111979, 112221, 112508, 112680, 112994, 113255, 113582, 113885, 114183, 114468, 114763, 115063, 115370, 115685, 115992, 116289, 116644, 116932, 117232, 117533, 117854, 118103, 118468, 118754, 119037, 119331, 119638, 119974, 120280, 120579, 120873, 121168, 121467, 121768, 122080, 122391, 122701, 122997, 123280, 123573, 123873, 124203, 124526, 124831, 125121, 125413, 125640, 125847, 126191, 126488, 126862, 127166, 127460, 127754, 127986, 128290, 128610, 128922, 129228, 129518, 129802, 130091, 130411, 130740, 131050, 131354, 131649, 131934, 132235, 132547, 132864, 133173, 133487, 133780, 134070, 134356, 134661, 134923, 135258, 135524, 135693, 135992, 136276, 136585, 136897, 137223, 137533, 137593, 137839, 138132, 138482, 138717, 138775, 139023, 139086, 139345, 139406, 139586, 139926, 140227, 140509, 140802, 141103, 141361, 141723, 142030, 142321, 142613, 142918, 143226, 143546, 143867, 144168, 144474, 144766, 145055, 145350, 145663, 146000, 146307, 146601, 146888, 147174, 147473, 147679, 148017, 148268, 148578, 148842, 149203, 149395, 149545, 149545, 149880, 150199, 150507, 150817, 151107, 151447, 151680, 152052, 152382, 152692, 152932, 153230, 153515, 153865, 154175, 154488, 154794, 155021, 155021, 155202, 155369, 155660, 155949, 156307, 156616, 156802, 157118, 157423, 157685, 157957, 158238, 158552, 158933, 159178, 159484, 159709, 160012, 160314, 160616, 160930, 161245, 161555, 161853, 162091, 162387, 162688, 163007, 163331, 163575, 163889, 164175, 164475, 164783, 165029, 165174, 165512, 165795, 166085, 166365, 166659, 166883, 167196, 167517, 167832, 168137, 168368, 168668, 168963, 169269, 169534, 169871, 170172, 170467, 170764, 171045, 171357, 171654, 171956, 172265, 172628, 172857, 173150, 173439, 173754, 174094, 174399, 174693, 174985, 175272, 175575, 175902, 176224, 176525, 176834, 177127, 177424, 177721, 177925, 178266, 178546, 178860, 179150, 179438, 179728, 180046, 180386, 180705, 181011, 181309, 181595, 181899, 182212, 182546, 182858, 183169, 183460, 183749, 183987, 183987, 184313, 184637, 184963, 185272, 185571, 185856, 186154, 186469, 186798, 187111, 187418, 187713, 188002, 188299, 188598, 188905, 189230, 189536, 189837, 190123, 190412, 190707, 191019, 191351, 191657, 191952, 192245, 192540, 192839, 193139, 193459, 193766, 194127, 194426, 194656, 194945, 195250, 195581, 195894, 196194, 196482, 196772, 196969, 197288, 197558, 197882, 198185, 198461, 198763, 199056, 199350, 199655, 199972, 200283, 200588, 200874, 201162, 201518, 201781, 202118, 202415, 202634, 202948, 203233, 203534, 203847, 204177, 204482, 204793, 205089, 205377, 205671, 205970, 206281, 206601, 206912, 207205, 207489, 207778, 208095, 208413, 208719, 209024, 209323, 209610, 209908, 210204, 210513, 210828, 211140, 211439, 211791, 212020, 212317, 212624, 212944, 213252, 213554, 213839, 214136, 214437, 214653, 214934, 215233, 215547, 215789, 216094, 216383, 216680, 216990, 217320, 217382, 217627, 217926, 218208, 218503, 218864, 219119, 219506, 219748, 220043, 220344, 220638, 220939, 221252, 221582, 221887, 222191, 222479, 222768, 223065, 223385, 223743, 224053, 224347, 224636, 224922, 225224, 225546, 225932, 226172, 226543, 226775, 227064, 227359, 227663, 227973, 228290, 228595, 228886, 229230, 229531, 229850, 230181, 230422, 230724, 231017, 231303, 231605, 231968, 232212, 232527, 232836, 233129, 233412, 233699, 233997, 234316, 234697, 234940, 235292, 235523, 235823, 236127, 236435, 236748, 237049, 237402, 237641, 237935, 238290, 238602, 238868, 239232, 239470, 239812, 240046, 240401, 240714, 240978, 241287, 241584, 241880, 242177, 242478, 242782, 243103, 243408, 243773, 244066, 244354, 244643, 244950, 245279, 245587, 245826, 246117, 246405, 246701, 247008, 247324, 247634, 247934, 248237, 248524, 248817, 249115, 249427, 249734, 250047, 250345, 250633, 250857, 251163, 251484, 251809, 252099, 252283, 252407, 252746, 253036, 253331, 253521, 253849, 254096, 254421, 254662, 254960, 255251, 255472, 255776, 256164, 256412, 256710, 256999, 257287, 257599, 257910, 258225, 258535, 258838, 259132, 259383, 259701, 260004, 260318, 260639, 260888, 261195, 261479, 261747, 262071, 262401, 262745, 263052, 263301, 263601, 263909, 264218, 264530, 264849, 265090, 265405, 265701, 265991, 266281, 266595, 266860, 267185, 267478, 267773, 268059, 268203, 268525, 268850, 269229, 269469, 269715, 270021, 270269, 270572, 270821, 271150, 271406, 271725, 272019, 272357, 272594, 272969, 273227, 273546, 273845, 274142, 274378, 274688, 274993, 275310, 275367, 275616, 275986, 276286, 276569, 276860, 277161, 277402, 277665, 277996, 278292, 278583, 278870, 279177, 279492, 279728, 280054, 280362, 280655, 280943, 281242, 281549, 281860, 282183, 282490, 282731, 283089, 283387, 283619, 283683, 284002, 284192, 284506, 284781, 285065, 285330, 285629, 285882, 286148, 286437, 286696, 286959, 287140, 287419, 287696, 287953, 288214, 288487, 288789, 289041, 289286, 289636, 289865, 290230, 290489, 290749, 291026, 291268, 291560, 291857, 292133, 292375, 292642, 292891, 293193, 293466, 293740, 294031, 294310, 294608, 294802, 295144, 295443, 295738, 296023, 296318, 296626, 296939, 297249, 297555, 297863, 298119, 298294, 298611, 298892, 299142, 299415, 299667, 299967, 300237, 300485, 300664, 301002, 301229, 301570, 301802, 302120, 302405, 302710, 302980, 303303, 303575, 303844, 304037, 304344, 304486, 305462, 305793, 306098, 306401, 306667, 306843, 307162, 307426, 307732, 308002, 308316, 308615, 308903, 309200, 309498, 309806, 310139, 310444, 310745, 310954, 311253, 311500, 311826, 312124, 312450, 312690, 313059, 313353, 313659, 313894, 314271, 314590, 314894, 315197, 315487, 315778, 316086, 316363, 316661, 316936, 317240, 317527, 317822, 318113, 318385, 318676, 318976, 319287, 319571, 319744, 320030, 320322, 320522, 320854, 321168, 321526, 321815, 322102, 322414, 322606, 322956, 323278, 323558, 323914, 324150, 324204, 324454, 324678, 325016, 325322, 325547, 325839, 326136, 326413, 326677, 326915, 327217, 327501, 327761, 328063, 328311, 328517, 328843, 329099, 329412, 329723, 330019, 330285, 330458, 330821, 331125, 331421, 331740, 331993, 332194, 332482, 332770, 333034, 333288, 333591, 333924, 334214, 334492, 334745, 334916, 335235, 335512, 335757, 336017, 336288, 336561, 336793, 337038, 337275, 337572, 337852, 338064, 338353, 338616, 338853, 339148, 339316, 339608, 339796, 340144, 340447, 340696, 340963, 341217, 341573, 341866, 342118, 342411, 342691, 342959, 343247, 343500, 343791, 344067, 344405, 344730, 345003, 345191, 345500, 345786, 346152, 346464, 346734, 346937, 347055, 347422, 347694, 347932, 348194, 348465, 348743, 349024, 349324, 349571, 349805, 350151, 350462, 350717, 351016, 351275, 351582, 351871, 352136, 352389, 352578, 352899, 353151, 353412, 353673, 353933, 354182, 354418, 354680, 354928, 355209, 355552, 355859, 356153, 356395, 356627, 356869, 357129, 357387, 357679, 357942, 358166, 358395, 358693, 358938, 359117, 359415, 359623, 359989, 360292, 360563, 360820, 361043, 361291, 361562, 361910, 362103, 362396, 362635, 362925, 363169, 363404, 363638, 363944, 364238, 364437, 364755, 365033, 365264, 365502, 365743, 365954, 366266, 366556, 366824, 367121, 367404, 367663, 367849, 368018, 368018, 368349, 368596, 368910, 369213, 369503, 369761, 370004, 370152, 370478, 370719, 370984, 371223, 371406, 371664, 371958, 372212, 372524, 372723, 373048, 373302, 373473, 373771, 374032, 374305, 374624, 374801, 375122, 375433, 375491, 375678, 375976, 376254, 376514, 376790, 377180, 377491, 377787, 378007, 378241, 378486, 378737, 378978, 379301, 379662, 379957, 380197, 380495, 380792, 381038, 381313, 381565, 381884, 382135, 382394, 382636, 382905, 383179, 383486, 383677, 384002, 384295, 384587, 384794, 385112, 385400, 385694, 386011, 386282, 386524, 386874, 387169, 387469, 387736, 388120, 388422, 388712, 388999, 389286, 389599, 389873, 390089, 390409, 390645, 390956, 391193, 391449, 391741, 392131, 392442, 392688, 392947, 393213, 393380, 393689, 393881, 394308, 394564, 394838, 395024, 395329, 395682, 395998, 396318, 396578, 396946, 397190, 397480, 397769, 398067, 398388, 398655, 398972, 399275, 399566, 399851, 400163, 400491, 400851, 401157, 401458, 401748, 402047, 402350, 402675, 403002, 403312, 403615, 403906, 404190, 404549, 404798, 405124, 405440, 405740, 406026, 406380, 406622, 406997, 407310, 407617, 407916, 408214, 408499, 408796, 409037, 409357, 409739, 409986, 410272, 410557, 410903, 411204, 411539, 411851, 412091, 412390, 412683, 412980, 413276, 413587, 413904, 414269, 414515, 414799, 415086, 415378, 415775, 416040, 416339, 416636, 416928, 417275, 417520, 417835, 418158, 418462, 418751, 419046, 419340, 419688, 419999, 420322, 420628, 420933, 421227, 421506, 421751, 422141, 422482, 422783, 423083, 423369, 423664, 423975, 424283, 424606, 424854, 425162, 425513, 425801, 426033, 426341, 426719, 427034, 427334, 427568, 427850, 428222, 428465, 428786, 429097, 429402, 429695, 429988, 430287, 430591, 430899, 431211, 431506, 431809, 432075, 432334, 432598, 432916, 433312, 433617, 433902, 434144, 434448, 434734, 435112, 435432, 435676, 436037, 436335, 436625, 436869, 437172, 437572, 437830, 438126, 438416, 438710, 439012, 439331, 439672, 439978, 440279, 440581, 440932, 441181, 441493, 441884, 442136, 442440, 442729, 443020, 443320, 443642, 443977, 444288, 444587, 444881, 445167, 445475, 445799, 446118, 446426, 446736, 447026, 447315, 447616, 447922, 448208, 448406, 448719, 449017, 449303, 449593, 449907, 450223, 450529, 450838, 451121, 451416, 451715, 452012, 452316, 452696, 453008, 453249, 453538, 453878, 454124, 454497, 454827, 455074, 455376, 455662, 455956, 456263, 456575, 456890, 457202, 457562, 457801, 458052, 458335, 458524, 458857, 459176, 459547, 459839, 460123, 460361, 460719, 460980, 461310, 461617, 461968, 462267, 462503, 462861, 463172, 463430, 463733, 464039, 464331, 464620, 464912, 465217, 465550, 465926, 466220, 466453, 466739, 467036, 467358, 467679, 467984, 468291, 468647, 468876, 469166, 469466, 469783, 470096, 470403, 470696, 470986, 471274, 471581, 471903, 472216, 472520, 472824, 473107, 473404, 473712, 474026, 474342, 474652, 474952, 475244, 475534, 475836, 476147, 476476, 476782, 477085, 477369, 477666, 477980, 478320, 478650, 478957, 479252, 479546, 479849, 480212, 480464, 480801, 481171, 481468, 481752, 482053, 482296, 482677, 483016, 483325, 483618, 483850, 484128, 484409, 484597, 484724, 485098, 485352, 485581, 485825, 486053, 486292, 486503, 486731, 486982, 487242, 487483, 487715, 487946, 488178, 488428, 488684, 488894, 489221, 489490, 489745, 490012, 490268, 490500, 490728, 491036, 491336, 491713, 491962, 492258, 492543, 492835, 493143, 493460, 493785, 494086, 494385, 494674, 494969, 495273, 495590, 495901, 496212, 496516, 496803, 497094, 497455, 497697, 498087, 498398, 498693, 498981, 499280, 499585, 499862, 500180, 500486, 500787, 501078, 501434, 501739, 502039, 502363, 502680, 502921, 503208, 503494, 503775, 503971, 504307, 504553, 504871, 505087, 505394, 505688, 505989, 506287, 506660, 506970, 507267, 507567, 507855, 508148, 508453, 508777, 509083, 509384, 509672, 509959, 510253, 510560, 510878, 511188, 511436, 511736, 512084, 512378, 512672, 512989, 513295, 513603, 513902, 514185, 514473, 514779, 515102, 515426, 515668, 515964, 516255, 516549, 516854, 517167, 517487, 517791, 518100, 518390, 518676, 518975, 519288, 519615, 519930, 520194, 520491, 520747, 521069, 521395, 521817, 522060, 522365, 522583, 522883, 523191, 523500, 523812, 524131, 524377, 524688, 524969, 525263, 525561, 525829, 526172, 526471, 526767, 527060, 527357, 527589, 527909, 528225, 528536, 528840, 529058, 529358, 529658, 529951, 530278, 530601, 530848, 531156, 531441, 531727, 532037, 532285, 532621, 532927, 533226, 533520, 533814, 534049, 534362, 534689, 535000, 535304, 535599, 535882, 536177, 536499, 536825, 537135, 537394, 537697, 537984, 538287, 538597, 538920, 539178, 539497, 539796, 540089, 540379, 540684, 540940, 541280, 541592, 541891, 542173, 542403, 542727, 543039, 543362, 543670, 543970, 544225, 544527, 544823, 545128, 545437, 545752, 546007, 546312, 546594, 546887, 547182, 547498, 547765, 548079, 548373, 548665, 548966, 549261, 549506, 549827, 550133, 550438, 550731, 551016, 551261, 551566, 551884, 552205, 552512, 552803, 553032, 553327, 553627, 553953, 554269, 554497, 554813, 555108, 555400, 555700, 556001, 556324, 556633, 556934, 557228, 557517, 557806, 558120, 558450, 558762, 559063, 559356, 559638, 559943, 560256, 560581, 560892, 561197, 561491, 561780, 562074, 562378, 562695, 563012, 563320, 563616, 563895, 564189, 564510, 564838, 565149, 565455, 565746, 566035, 566343, 566641, 567018, 567277, 567587, 567885, 568165, 568456, 568759, 569138, 569406, 569707, 570000, 570287, 570591, 570889, 571204, 571524, 571826, 572131, 572423, 572715, 573013, 573323, 573664, 573970, 574265, 574549, 574844, 575146, 575468, 575806, 576107, 576408, 576709, 577000, 577300, 577608, 577936, 578245, 578552, 578839, 579126, 579422, 579742, 580090, 580396, 580694, 580990, 581277, 581277, 581578, 581890, 582212, 582516, 582827, 583116, 583401, 583700, 584004, 584323, 584638, 584942, 585236, 585519, 585719, 586038, 586364, 586672, 586977, 587276, 587565, 587864, 588159, 588464, 588783, 589097, 589394, 589681, 589966, 590261, 590572, 590889, 591196, 591497, 591786, 592081, 592382, 592691, 593005, 593318, 593614, 593910, 594201, 594496, 594798, 595119, 595439, 595747, 596036, 596322, 596616, 596924, 597259, 597577, 597873, 598171, 598467, 598826, 599065, 599381, 599758, 600007, 600308, 600592, 600885, 601187, 601517, 601743, 602064, 602296, 602603, 602888, 603184, 603502, 603826, 604127, 604437, 604734, 605021, 605316, 605619, 605935, 606252, 606561, 606850, 607135, 607429, 607747, 608076, 608384, 608689, 608984, 609274, 609575, 609880, 610187, 610505, 610816, 611111, 611398, 611687, 611986, 612309, 612637, 612939, 613234, 613525, 613828, 614138, 614449, 614768, 615075, 615375, 615670, 615963, 616261, 616579, 616920, 617224, 617521, 617812, 618098, 618404, 618738, 619066, 619371, 619670, 619965, 620268, 620566, 620882, 621207, 621515, 621819, 622110, 622395, 622691, 623021, 623345, 623648, 623948, 624237, 624531, 624833, 625140, 625460, 625767, 626075, 626370, 626651, 626943, 627253, 627568, 627878, 628183, 628475, 628758, 629063, 629371, 629694, 630003, 630306, 630602, 630892, 631186, 631487, 631798, 632122, 632435, 632728, 633010, 633306, 633605, 633926, 634252, 634556, 634846, 635139, 635436, 635742, 636054, 636367, 636671, 636974, 637265, 637559, 637855, 638166, 638507, 638814, 639106, 639396, 639690, 639989, 640318, 640645, 640948, 641252, 641547, 641844, 642145, 642447, 642768, 643077, 643377, 643668, 643959, 644248, 644567, 644892, 645199, 645499, 645793, 646076, 646382, 646694, 647012, 647316, 647622, 647917, 648206, 648499, 648798, 649106, 649422, 649731
