Results for: 220.dart
========================================
Total Peaks Detected: 2043
Heart Rate: 68.02 BPM
========================================
Peak indices (2043 peaks):
689, 1818, 2122, 2426, 2724, 3027, 3332, 3624, 3926, 4226, 4532, 4833, 5129, 5436, 5743, 6036, 6341, 6640, 6944, 7245, 7537, 7842, 8144, 8441, 8741, 9039, 9344, 9639, 9935, 10239, 10539, 10835, 11141, 11439, 11745, 12041, 12336, 12646, 12950, 13245, 13552, 13849, 14156, 14455, 14756, 15067, 15368, 15661, 15963, 16260, 16553, 16848, 17142, 17444, 17744, 17937, 18289, 18599, 18909, 19217, 19523, 19840, 20148, 20443, 20741, 21048, 21351, 21645, 21947, 22249, 22545, 22844, 23148, 23456, 23761, 24061, 24374, 24679, 24979, 25284, 25589, 25896, 26201, 26506, 26814, 27121, 27425, 27729, 28040, 28344, 28641, 28951, 29256, 29550, 29850, 30145, 30447, 30744, 31033, 31342, 31650, 31945, 32247, 32543, 32845, 33143, 33438, 33741, 34039, 34330, 34629, 34928, 35237, 35543, 35849, 36161, 36468, 36772, 37078, 37389, 37698, 38003, 38314, 38623, 38925, 39235, 39539, 39849, 40154, 40456, 40768, 41069, 41366, 41674, 41978, 42282, 42580, 42877, 43184, 43486, 43783, 44085, 44392, 44699, 44998, 45299, 45609, 45913, 46212, 46509, 46808, 47110, 47405, 47702, 48010, 48311, 48612, 48910, 49215, 49523, 49824, 50130, 50435, 50733, 51031, 51332, 51634, 51938, 52238, 52543, 52850, 53149, 53454, 53763, 54070, 54369, 54665, 54974, 55279, 55574, 55873, 56176, 56483, 56781, 57080, 57391, 57693, 57992, 58296, 58599, 58900, 59200, 59499, 59799, 60097, 60393, 60695, 61004, 61303, 61605, 61917, 62223, 62521, 62820, 63124, 63434, 63727, 64026, 64334, 64635, 64932, 65230, 65531, 65838, 66137, 66439, 66748, 67046, 67344, 67642, 67944, 68246, 68543, 68845, 69150, 69449, 69748, 70051, 70354, 70654, 70953, 71259, 71557, 71851, 72152, 72451, 72754, 73050, 73344, 73658, 73964, 74260, 74565, 74867, 75176, 75477, 75770, 76083, 76392, 76690, 76992, 77297, 77609, 77912, 78215, 78525, 78833, 79133, 79440, 79750, 80053, 80358, 80668, 80982, 81294, 81609, 81919, 82234, 82534, 82833, 83153, 83461, 83768, 84078, 84385, 84703, 85018, 85328, 85647, 85961, 86276, 86595, 86924, 87246, 87567, 87901, 88222, 88532, 88847, 89168, 89485, 89796, 90114, 90426, 90732, 91039, 91344, 91657, 91963, 92273, 92590, 92901, 93211, 93520, 93832, 94145, 94450, 94762, 95075, 95382, 95698, 96009, 96323, 96635, 96951, 97270, 97584, 97899, 98217, 98550, 98876, 99205, 99554, 99885, 100210, 100539, 100868, 101196, 101513, 101844, 102163, 102474, 102789, 103100, 103414, 103724, 104033, 104346, 104653, 104954, 105265, 105580, 105884, 106191, 106513, 106830, 107140, 107449, 107763, 108083, 108390, 108706, 109028, 109341, 109654, 109968, 110276, 110582, 110882, 111186, 111495, 111790, 112099, 112406, 112718, 113026, 113325, 113632, 113942, 114241, 114538, 114735, 115091, 115401, 115709, 115986, 116138, 116459, 116781, 117081, 117389, 117700, 118003, 118322, 118633, 118941, 119250, 119551, 119857, 120156, 120344, 120707, 121031, 121331, 121633, 121936, 122237, 122536, 122835, 123137, 123434, 123728, 124025, 124326, 124625, 124920, 125221, 125528, 125832, 126143, 126461, 126794, 127114, 127428, 127755, 128067, 128372, 128687, 129004, 129313, 129622, 129941, 130262, 130575, 130889, 131205, 131528, 131849, 132183, 132528, 132860, 133193, 133516, 133847, 134172, 134495, 134818, 135135, 135456, 135775, 136100, 136418, 136732, 137056, 137370, 137676, 137993, 138308, 138617, 138927, 139243, 139559, 139874, 140191, 140502, 140824, 141139, 141452, 141775, 142087, 142397, 142710, 143017, 143326, 143628, 143927, 144235, 144426, 144765, 145077, 145385, 145691, 145986, 146276, 146574, 146861, 147065, 147278, 147438, 147763, 148056, 148276, 148426, 148565, 148785, 149111, 149421, 149616, 149760, 149898, 150048, 150344, 150682, 150863, 151015, 151154, 151557, 151885, 152210, 152474, 152849, 153176, 153517, 153839, 154152, 154472, 154794, 155113, 155309, 155455, 155686, 156074, 156415, 156750, 157083, 157419, 157749, 158084, 158360, 158746, 159079, 159407, 159734, 160047, 160368, 160691, 161005, 161333, 161651, 161972, 162284, 162590, 162903, 163209, 163507, 163817, 164133, 164448, 164767, 165090, 165409, 165732, 166055, 166376, 166704, 167026, 167349, 167672, 167983, 168305, 168620, 168944, 169265, 169584, 169919, 170246, 170577, 170914, 171243, 171570, 171887, 172216, 172538, 172850, 173175, 173512, 173838, 174158, 174492, 174826, 175153, 175475, 175798, 176127, 176451, 176777, 177114, 177434, 177769, 178101, 178436, 178764, 179094, 179438, 179774, 180116, 180452, 180788, 181118, 181449, 181791, 182128, 182467, 182806, 183147, 183472, 183804, 184144, 184476, 184804, 185128, 185462, 185784, 186106, 186445, 186767, 187096, 187425, 187759, 188081, 188406, 188742, 189059, 189371, 189700, 190038, 190375, 190707, 191049, 191389, 191724, 192061, 192400, 192734, 193059, 193397, 193721, 194048, 194376, 194707, 195032, 195355, 195693, 196026, 196351, 196684, 197015, 197345, 197674, 198013, 198340, 198658, 198978, 199316, 199641, 199961, 200199, 200575, 200910, 201227, 201548, 201876, 202195, 202520, 202849, 203171, 203495, 203820, 204147, 204473, 204795, 205129, 205454, 205775, 206105, 206431, 206745, 207061, 207389, 207715, 208038, 208363, 208700, 209037, 209369, 209714, 210054, 210385, 210714, 211047, 211384, 211709, 212045, 212383, 212709, 213038, 213373, 213708, 214041, 214382, 214720, 215048, 215384, 215719, 216049, 216383, 216723, 217057, 217387, 217719, 218054, 218388, 218713, 219049, 219384, 219704, 220028, 220345, 220674, 220984, 221296, 221622, 221937, 222255, 222561, 222887, 223198, 223509, 223826, 224021, 224371, 224676, 224984, 225289, 225494, 225835, 226153, 226458, 226760, 227063, 227380, 227697, 228001, 228187, 228332, 228648, 228973, 229290, 229493, 229870, 230194, 230514, 230838, 231154, 231473, 231800, 231991, 232138, 232290, 232463, 232715, 233101, 233429, 233602, 233748, 233895, 234230, 234589, 234918, 235256, 235596, 235921, 236260, 236591, 236933, 237279, 237621, 237963, 238304, 238650, 238988, 239329, 239661, 239993, 240327, 240659, 241013, 241354, 241692, 242034, 242382, 242729, 243070, 243418, 243767, 244115, 244456, 244816, 245161, 245494, 245836, 246181, 246532, 246865, 247207, 247552, 247893, 248237, 248583, 248927, 249271, 249619, 249961, 250307, 250661, 251014, 251357, 251705, 252056, 252393, 252737, 253082, 253430, 253765, 254111, 254454, 254788, 255125, 255471, 255809, 256147, 256492, 256845, 257187, 257538, 257898, 258240, 258576, 258930, 259267, 259598, 259921, 260258, 260579, 260905, 261241, 261558, 261885, 262215, 262544, 262870, 263196, 263531, 263856, 264172, 264498, 264831, 265157, 265479, 265817, 266148, 266469, 266787, 267127, 267461, 267791, 268145, 268492, 268829, 269168, 269509, 269850, 270184, 270525, 270851, 271172, 271504, 271841, 272180, 272521, 272870, 273216, 273552, 273898, 274245, 274584, 274916, 275263, 275596, 275924, 276256, 276595, 276932, 277258, 277602, 277932, 278266, 278599, 278929, 279260, 279589, 279933, 280267, 280595, 280923, 281257, 281591, 281918, 282254, 282590, 282919, 283238, 283570, 283900, 284216, 284544, 284872, 285204, 285533, 285876, 286222, 286552, 286902, 287237, 287558, 287893, 288233, 288563, 288887, 289231, 289575, 289903, 290241, 290581, 290923, 291259, 291605, 291942, 292270, 292597, 292929, 293248, 293562, 293897, 294219, 294541, 294870, 295201, 295529, 295849, 296047, 296420, 296749, 297071, 297393, 297725, 298057, 298390, 298615, 298986, 299330, 299663, 299988, 300226, 300587, 300921, 301241, 301551, 301868, 302203, 302539, 302854, 303185, 303514, 303843, 304179, 304513, 304744, 305126, 305467, 305801, 306126, 306428, 306778, 307109, 307435, 307621, 307770, 308010, 308365, 308713, 309055, 309399, 309599, 309977, 310337, 310679, 311015, 311362, 311716, 312061, 312396, 312747, 313086, 313420, 313763, 314110, 314455, 314804, 315163, 315516, 315868, 316219, 316565, 316903, 317259, 317609, 317948, 318290, 318639, 318986, 319320, 319669, 320006, 320342, 320684, 321029, 321368, 321705, 322040, 322373, 322705, 323037, 323370, 323692, 324012, 324349, 324674, 324996, 325330, 325678, 326011, 326337, 326677, 327004, 327343, 327671, 328007, 328336, 328552, 328947, 329296, 329632, 329971, 330307, 330636, 330971, 331315, 331660, 331992, 332325, 332675, 333007, 333336, 333540, 333927, 334267, 334603, 334939, 335270, 335596, 335936, 336265, 336580, 336910, 337251, 337584, 337909, 338250, 338589, 338926, 339259, 339607, 339954, 340303, 340654, 341010, 341358, 341717, 342087, 342457, 342835, 343200, 343555, 343918, 344278, 344633, 344972, 345325, 345684, 346022, 346368, 346719, 347054, 347391, 347730, 348068, 348401, 348748, 349105, 349454, 349819, 350189, 350552, 350922, 351298, 351672, 352034, 352408, 352766, 353116, 353468, 353816, 354161, 354506, 354847, 355180, 355521, 355859, 356192, 356528, 356883, 357234, 357578, 357924, 358280, 358631, 358966, 359318, 359652, 359988, 360328, 360668, 360912, 361283, 361632, 361968, 362289, 362620, 362964, 363293, 363622, 363956, 364298, 364635, 364967, 365163, 365321, 365692, 366040, 366384, 366714, 366912, 367300, 367645, 367984, 368313, 368658, 368996, 369330, 369666, 370010, 370361, 370705, 371061, 371411, 371761, 372115, 372468, 372814, 373167, 373523, 373868, 374227, 374586, 374953, 375307, 375672, 376018, 376354, 376697, 377048, 377395, 377735, 378096, 378441, 378779, 379125, 379464, 379799, 380127, 380467, 380798, 381138, 381482, 381834, 382175, 382527, 382880, 383224, 383569, 383912, 384262, 384608, 384974, 385330, 385677, 386040, 386408, 386758, 387105, 387453, 387794, 388139, 388479, 388818, 389154, 389492, 389826, 390167, 390503, 390838, 391171, 391466, 391818, 392149, 392470, 392792, 392985, 393131, 393498, 393819, 394154, 394461, 394800, 395128, 395454, 395656, 395865, 396242, 396589, 396918, 397135, 397293, 397661, 398015, 398344, 398678, 399028, 399365, 399700, 399888, 400042, 400419, 400759, 401091, 401425, 401755, 402089, 402418, 402746, 403076, 403421, 403758, 404076, 404391, 404711, 405042, 405360, 405667, 406005, 406327, 406649, 406970, 407302, 407632, 407957, 408298, 408631, 408962, 409301, 409652, 409989, 410334, 410682, 411021, 411348, 411697, 412052, 412389, 412727, 413074, 413411, 413744, 414072, 414411, 414735, 415059, 415394, 415717, 416044, 416369, 416639, 416799, 417145, 417495, 417836, 418157, 418497, 418838, 419173, 419498, 419836, 420180, 420512, 420842, 421178, 421519, 421847, 422190, 422532, 422865, 423201, 423536, 423864, 424180, 424515, 424838, 425153, 425477, 425811, 426145, 426480, 426823, 427169, 427509, 427844, 428190, 428529, 428860, 429203, 429533, 429857, 430182, 430515, 430850, 431174, 431512, 431845, 432171, 432511, 432854, 433195, 433531, 433880, 434219, 434554, 434894, 435233, 435560, 435882, 436216, 436542, 436802, 437170, 437505, 437834, 438030, 438406, 438756, 439089, 439431, 439760, 440097, 440420, 440744, 441071, 441384, 441693, 441899, 442252, 442563, 442876, 443098, 443254, 443595, 443916, 444243, 444434, 444585, 444726, 444900, 445252, 445598, 445848, 446037, 446376, 446748, 447094, 447288, 447430, 447745, 448090, 448422, 448754, 449080, 449405, 449723, 449940, 450098, 450470, 450813, 451155, 451497, 451838, 452177, 452519, 452855, 453186, 453518, 453867, 454196, 454436, 454828, 455162, 455481, 455759, 456097, 456419, 456730, 457042, 457349, 457647, 457949, 458231, 458405, 458739, 459080, 459418, 459748, 460077, 460417, 460750, 461076, 461396, 461727, 462050, 462373, 462701, 463027, 463358, 463676, 464005, 464332, 464639, 464959, 465279, 465596, 465915, 466228, 466554, 466878, 467193, 467511, 467733, 468111, 468442, 468778, 469099, 469416, 469738, 470055, 470376, 470693, 471017, 471347, 471663, 471988, 472315, 472649, 472973, 473292, 473633, 473961, 474289, 474623, 474971, 475302, 475632, 475969, 476299, 476634, 476972, 477313, 477647, 477982, 478329, 478659, 478983, 479306, 479632, 479955, 480281, 480611, 480938, 481266, 481598, 481943, 482270, 482598, 482936, 483273, 483603, 483935, 484268, 484590, 484916, 485247, 485573, 485902, 486225, 486563, 486888, 487215, 487551, 487869, 488062, 488417, 488742, 489058, 489364, 489695, 490028, 490345, 490666, 490994, 491318, 491635, 491959, 492289, 492613, 492934, 493258, 493585, 493906, 494239, 494568, 494887, 495214, 495540, 495863, 496179, 496498, 496825, 497148, 497465, 497789, 498118, 498439, 498753, 499080, 499399, 499713, 500027, 500339, 500642, 500943, 501243, 501547, 501853, 502162, 502477, 502776, 503117, 503433, 503766, 504087, 504399, 504722, 505044, 505365, 505683, 506008, 506336, 506658, 506978, 507297, 507611, 507914, 508222, 508536, 508844, 509149, 509458, 509777, 510095, 510406, 510733, 511066, 511258, 511422, 511724, 512128, 512479, 512810, 513149, 513480, 513805, 514127, 514452, 514769, 515086, 515424, 515743, 516059, 516386, 516716, 517034, 517348, 517673, 517987, 518293, 518483, 518830, 519147, 519448, 519745, 520055, 520355, 520646, 520944, 521253, 521563, 521866, 522175, 522483, 522786, 523091, 523397, 523700, 523996, 524289, 524597, 524895, 525186, 525485, 525783, 526096, 526407, 526718, 527041, 527356, 527667, 527986, 528310, 528622, 528936, 529259, 529574, 529884, 530193, 530510, 530829, 531142, 531455, 531769, 532074, 532379, 532679, 532995, 533299, 533593, 533900, 534208, 534508, 534816, 535042, 535410, 535725, 536030, 536347, 536659, 536963, 537273, 537595, 537910, 538224, 538546, 538862, 539173, 539492, 539812, 540130, 540443, 540764, 541090, 541402, 541725, 542047, 542371, 542687, 542997, 543329, 543646, 543947, 544255, 544571, 544880, 545188, 545507, 545825, 546139, 546453, 546768, 547088, 547398, 547706, 548021, 548327, 548634, 548947, 549265, 549575, 549883, 550206, 550523, 550831, 551148, 551467, 551782, 552091, 552407, 552723, 553026, 553327, 553627, 553930, 554220, 554407, 554753, 555048, 555344, 555529, 555876, 556192, 556501, 556805, 557126, 557443, 557748, 557976, 558154, 558523, 558868, 559188, 559521, 559847, 560162, 560474, 560785, 561088, 561388, 561699, 562009, 562322, 562635, 562945, 563261, 563575, 563887, 564207, 564514, 564826, 565137, 565451, 565762, 566068, 566387, 566700, 567007, 567325, 567643, 567962, 568272, 568583, 568902, 569218, 569525, 569836, 570162, 570476, 570787, 571116, 571438, 571756, 572077, 572393, 572713, 573027, 573348, 573667, 573979, 574298, 574613, 574935, 575246, 575550, 575867, 576179, 576491, 576803, 577120, 577429, 577735, 578058, 578371, 578676, 578983, 579293, 579611, 579917, 580233, 580560, 580873, 581193, 581513, 581831, 582149, 582460, 582783, 583104, 583420, 583740, 584068, 584389, 584706, 585034, 585349, 585657, 585976, 586297, 586610, 586918, 587242, 587558, 587869, 588184, 588497, 588813, 589127, 589442, 589759, 590066, 590377, 590689, 591007, 591317, 591625, 591941, 592252, 592558, 592860, 593170, 593491, 593791, 594104, 594419, 594722, 595037, 595343, 595653, 595963, 596270, 596588, 596898, 597211, 597535, 597853, 598170, 598490, 598810, 599133, 599451, 599769, 600088, 600408, 600680, 601035, 601366, 601685, 601999, 602313, 602636, 602948, 603252, 603581, 603903, 604215, 604534, 604855, 605186, 605501, 605818, 606146, 606469, 606786, 607104, 607430, 607748, 608063, 608381, 608689, 608999, 609307, 609630, 609944, 610256, 610583, 610897, 611082, 611449, 611769, 612084, 612396, 612712, 613027, 613333, 613640, 613956, 614276, 614588, 614905, 615236, 615552, 615862, 616171, 616492, 616809, 617118, 617440, 617761, 618080, 618397, 618713, 619037, 619359, 619688, 620017, 620332, 620656, 620973, 621287, 621597, 621915, 622231, 622545, 622864, 623185, 623518, 623840, 624153, 624478, 624794, 625106, 625422, 625744, 626059, 626367, 626688, 627002, 627305, 627618, 627928, 628246, 628561, 628870, 629188, 629502, 629817, 630133, 630456, 630775, 631092, 631424, 631741, 632055, 632372, 632684, 633001, 633307, 633615, 633925, 634226, 634535, 634842, 635159, 635471, 635781, 636107, 636424, 636614, 636987, 637318, 637643, 637965, 638298, 638619, 638928, 639247, 639557, 639879, 640190, 640498, 640817, 641134, 641447, 641759, 642084, 642405, 642718, 643043, 643228, 643588, 643916, 644239, 644566, 644890, 645213, 645540, 645740, 646108, 646448, 646781, 647092, 647405, 647726, 648035, 648341, 648651, 648968, 649279, 649585, 649906
