Results for: 221.dart
========================================
Total Peaks Detected: 2417
Heart Rate: 80.50 BPM
========================================
Peak indices (2417 peaks):
925, 1805, 1805, 2065, 2357, 2517, 2826, 3064, 3526, 3799, 4129, 4490, 4839, 5093, 5356, 5535, 5849, 6099, 6352, 6510, 6881, 7216, 7513, 7687, 8073, 8302, 8546, 8817, 9247, 9516, 9786, 10104, 10375, 10642, 10814, 11127, 11384, 11680, 11850, 12148, 12391, 12743, 13026, 13204, 13497, 13738, 13999, 14244, 14543, 14803, 14965, 15335, 15567, 15835, 16086, 16540, 16928, 17199, 17429, 17684, 17911, 18207, 18465, 18759, 19072, 19264, 19639, 19869, 20148, 20294, 20653, 20912, 21243, 21490, 21757, 21980, 22237, 22397, 22731, 22993, 23328, 23766, 24105, 24361, 24602, 24881, 25198, 25379, 25701, 25950, 26182, 26340, 26621, 26869, 27147, 27308, 27692, 27958, 28186, 28414, 28566, 29059, 29324, 29631, 29949, 30119, 30427, 30662, 30880, 31124, 31548, 31794, 32161, 32436, 32611, 32992, 33261, 33430, 33749, 34012, 34278, 34520, 34677, 34969, 35228, 35671, 35930, 36201, 36389, 36769, 37001, 37243, 37401, 37851, 38100, 38423, 38692, 38942, 39245, 39560, 39716, 40017, 40264, 40507, 40681, 41018, 41343, 41567, 41781, 41949, 42334, 42654, 42824, 43128, 43364, 43590, 43807, 44042, 44336, 44505, 44840, 45113, 45294, 45618, 45864, 46153, 46314, 46634, 46906, 47147, 47397, 47558, 47867, 48133, 48301, 48569, 48847, 49156, 49333, 49626, 49848, 50067, 50226, 50568, 51058, 51378, 51544, 51843, 52134, 52301, 52599, 52871, 53113, 53459, 53730, 53982, 54255, 54620, 54868, 55104, 55275, 55621, 55869, 56144, 56357, 56649, 56894, 57351, 57610, 57841, 58016, 58343, 58572, 58810, 58967, 59262, 59496, 59776, 60038, 60458, 60692, 60939, 61095, 61413, 61724, 61894, 62352, 62638, 62799, 63126, 63364, 63593, 63842, 64010, 64301, 64539, 64770, 64924, 65244, 65469, 65721, 65887, 66288, 66744, 67045, 67205, 67514, 67761, 68037, 68210, 68505, 68984, 69315, 69558, 70003, 70325, 70560, 70894, 71193, 71356, 71697, 72013, 72293, 72578, 72756, 73108, 73343, 73595, 73760, 74091, 74610, 74893, 75061, 75358, 75600, 75824, 76049, 76303, 76562, 76758, 77118, 77397, 77677, 77847, 78109, 78322, 78561, 78732, 79057, 79306, 79675, 79942, 80114, 80434, 80653, 80883, 81197, 81368, 81717, 82047, 82207, 82531, 82765, 82987, 83242, 83411, 83744, 83966, 84265, 84563, 84715, 85053, 85299, 85552, 85727, 86035, 86281, 86510, 86670, 86965, 87220, 87570, 87746, 88108, 88338, 88596, 88756, 89170, 89375, 89669, 89924, 90341, 90588, 90819, 91069, 91291, 91502, 91726, 91966, 92250, 92512, 92675, 92976, 93194, 93416, 93588, 93984, 94236, 94480, 94643, 94975, 95204, 95457, 95723, 95959, 96190, 96362, 96715, 96947, 97219, 97505, 97666, 97998, 98231, 98446, 98685, 98871, 99168, 99372, 99661, 99909, 100129, 100299, 100602, 100890, 101060, 101423, 101667, 101899, 102114, 102289, 102593, 102868, 103049, 103354, 103613, 103891, 104053, 104370, 104651, 104816, 105182, 105509, 105675, 106100, 106338, 106548, 106771, 106942, 107246, 107491, 107728, 107889, 108180, 108486, 108646, 108942, 109574, 109807, 110056, 110215, 110516, 110728, 111085, 111346, 111638, 111808, 112186, 112461, 112615, 112875, 113110, 113377, 113557, 113853, 114094, 114342, 114622, 114987, 115210, 115447, 115706, 115930, 116158, 116335, 116611, 116834, 117144, 117641, 117946, 118116, 118470, 118707, 118936, 119239, 119470, 119700, 119865, 120224, 120473, 120770, 121089, 121240, 121546, 121802, 122047, 122293, 122570, 122967, 123404, 123634, 123882, 124346, 124587, 124903, 125322, 125629, 125912, 126081, 126434, 126660, 126880, 127119, 127289, 127620, 128043, 128323, 128491, 128865, 129087, 129313, 129575, 129811, 130076, 130306, 130546, 130730, 131101, 131368, 131544, 131875, 132200, 132416, 132640, 132888, 133055, 133363, 133800, 134028, 134241, 134400, 134675, 135128, 135408, 135683, 135852, 136187, 136398, 136625, 136776, 137077, 137322, 137572, 137736, 138071, 138351, 138511, 138813, 139037, 139362, 139585, 139817, 140037, 140359, 140594, 140800, 140973, 141279, 141619, 141931, 142111, 142482, 142710, 142941, 143163, 143325, 143620, 143891, 144132, 144354, 144525, 144809, 145078, 145245, 145567, 145851, 146030, 146405, 146632, 146870, 147099, 147305, 147583, 147784, 148090, 148322, 148553, 148795, 149020, 149258, 149425, 149743, 150003, 150188, 150524, 150811, 151106, 151262, 151600, 151842, 152160, 152330, 152695, 152954, 153133, 153398, 153650, 153872, 154096, 154266, 154592, 154823, 155111, 155366, 155583, 155834, 156138, 156294, 156671, 156936, 157187, 157406, 157585, 157848, 158056, 158287, 158620, 158845, 159102, 159345, 159590, 159820, 160047, 160256, 160475, 160701, 160877, 161282, 161542, 161770, 161952, 162208, 162425, 162642, 162825, 163126, 163362, 163628, 163924, 164080, 164429, 164672, 164841, 165167, 165450, 165678, 165920, 166085, 166447, 166681, 166930, 167110, 167446, 167701, 167932, 168280, 168518, 168745, 168907, 169220, 169439, 169671, 169838, 170161, 170426, 170664, 170937, 171341, 171675, 171976, 172149, 172543, 172793, 173027, 173261, 173585, 173886, 174060, 174440, 174732, 174901, 175194, 175423, 175715, 175966, 176292, 176538, 176802, 177035, 177325, 177726, 178006, 178199, 178560, 178816, 179055, 179358, 179582, 179828, 179981, 180300, 180564, 180833, 181012, 181354, 181587, 181846, 182154, 182315, 182659, 182957, 183132, 183496, 183926, 184167, 184380, 184638, 184890, 185136, 185393, 185560, 185977, 186239, 186495, 186669, 186968, 187271, 187441, 187827, 188056, 188258, 188470, 188643, 188937, 189177, 189419, 189586, 189876, 190118, 190370, 190525, 190789, 191075, 191255, 191622, 191870, 192142, 192302, 192598, 192845, 193178, 193431, 193700, 193882, 194134, 194382, 194686, 194943, 195170, 195394, 195566, 195872, 196107, 196350, 196520, 196862, 197128, 197292, 197575, 197874, 198056, 198374, 198611, 198809, 199012, 199256, 199446, 199679, 199855, 200234, 200484, 200699, 200865, 201172, 201445, 201606, 201976, 202257, 202504, 202781, 202950, 203226, 203442, 203647, 203826, 204092, 204430, 204713, 204940, 205158, 205323, 205611, 205881, 206041, 206359, 206652, 206901, 207086, 207368, 207590, 207810, 207978, 208379, 208601, 208876, 209042, 209341, 209600, 209769, 210022, 210276, 210507, 210776, 211061, 211370, 211532, 211852, 212095, 212339, 212516, 212769, 212999, 213254, 213426, 213816, 214081, 214244, 214598, 214826, 215162, 215408, 215651, 215882, 216046, 216317, 216722, 216994, 217165, 217529, 217797, 218050, 218222, 218496, 218722, 218956, 219207, 219426, 219708, 219879, 220228, 220584, 220831, 221089, 221267, 221628, 221884, 222130, 222352, 222521, 222816, 223035, 223258, 223432, 223707, 224051, 224325, 224564, 224790, 224945, 225239, 225538, 225818, 226049, 226335, 226568, 226865, 227314, 227689, 227955, 228206, 228446, 228728, 228932, 229149, 229404, 229607, 229909, 230176, 230402, 230700, 230926, 231086, 231432, 231648, 232118, 232381, 232737, 232973, 233213, 233376, 233668, 233893, 234134, 234306, 234690, 234924, 235184, 235568, 235822, 236082, 236249, 236577, 236857, 237035, 237343, 237690, 237949, 238223, 238378, 238713, 238941, 239208, 239374, 239691, 239917, 240152, 240377, 240582, 240822, 240996, 241348, 241629, 241804, 242090, 242311, 242522, 242729, 242912, 243226, 243497, 243693, 243994, 244236, 244460, 244687, 244904, 245173, 245343, 245625, 245864, 246104, 246274, 246586, 246791, 247050, 247338, 247628, 247803, 248118, 248390, 248550, 248869, 249146, 249317, 249607, 249859, 250193, 250477, 250640, 250913, 251152, 251373, 251583, 251761, 252129, 252350, 252620, 252816, 253016, 253225, 253388, 253716, 254006, 254175, 254482, 254752, 254913, 255197, 255596, 255852, 256116, 256290, 256615, 256892, 257064, 257346, 257559, 257789, 258012, 258254, 258503, 258746, 258919, 259184, 259404, 259655, 259883, 260118, 260292, 260292, 260610, 260833, 261080, 261244, 261527, 261777, 261942, 262267, 262560, 262734, 263070, 263303, 263553, 263728, 264130, 264367, 264616, 264797, 265092, 265354, 265577, 265806, 265964, 266270, 266501, 266756, 266985, 267210, 267468, 267713, 267909, 268144, 268370, 268707, 268985, 269218, 269391, 269691, 269939, 270166, 270327, 270615, 270822, 271069, 271231, 271593, 272010, 272420, 272657, 272893, 273062, 273339, 273801, 273976, 274346, 274828, 275189, 275563, 275815, 276057, 276306, 276474, 276758, 276990, 277230, 277466, 277699, 277872, 278169, 278485, 278749, 278978, 279215, 279575, 280052, 280544, 280813, 280967, 281285, 281536, 281770, 282127, 282400, 282577, 282797, 282929, 283283, 283538, 283762, 284000, 284161, 284557, 284797, 285209, 285427, 285802, 286047, 286280, 286562, 286864, 287034, 287461, 287767, 287995, 288236, 288496, 288660, 289162, 289414, 289577, 289874, 290116, 290519, 290780, 291029, 291277, 291440, 291737, 291944, 292218, 292624, 292877, 293174, 293465, 293631, 294137, 294377, 294591, 294830, 294994, 295292, 295540, 295769, 296111, 296368, 296535, 296873, 297272, 297609, 297934, 298396, 298753, 298973, 299289, 299492, 299781, 300019, 300245, 300409, 300702, 300972, 301131, 301526, 301771, 302025, 302202, 302484, 302703, 302933, 303091, 303294, 303428, 303738, 304113, 304467, 304722, 304948, 305193, 305501, 305665, 305993, 306357, 306596, 306817, 307028, 307186, 307477, 307703, 307973, 308417, 308713, 308870, 309224, 309471, 309692, 309987, 310217, 310482, 310895, 311144, 311421, 311581, 311846, 312073, 312346, 312515, 312856, 313089, 313292, 313469, 313739, 313951, 314184, 314369, 314665, 314924, 315217, 315439, 315765, 316016, 316250, 316416, 316718, 316971, 317274, 317769, 317979, 318172, 318455, 318692, 318938, 319116, 319435, 319674, 319910, 320146, 320411, 320663, 320948, 321213, 321463, 321627, 321988, 322214, 322472, 322712, 322933, 323162, 323338, 323699, 323978, 324136, 324488, 324741, 325057, 325283, 325510, 325798, 325967, 326255, 326564, 326716, 327140, 327422, 327655, 327877, 328042, 328549, 329035, 329374, 329701, 329960, 330202, 330429, 330648, 330804, 331102, 331370, 331538, 332038, 332298, 332528, 332707, 333077, 333288, 333558, 333810, 334051, 334302, 334470, 334879, 335092, 335320, 335579, 335811, 336104, 336382, 336619, 336856, 337108, 337470, 337760, 337921, 338263, 338505, 338751, 338983, 339140, 339454, 339667, 339906, 340138, 340384, 340654, 340892, 341167, 341328, 341683, 341922, 342306, 342544, 342802, 342968, 343307, 343536, 343828, 344085, 344249, 344523, 344744, 344965, 345147, 345447, 345694, 345933, 346154, 346394, 346614, 346830, 347079, 347469, 347671, 347933, 348105, 348574, 348870, 349037, 349352, 349621, 349781, 350105, 350378, 350538, 350863, 351115, 351325, 351623, 351867, 352173, 352386, 352596, 352795, 353007, 353255, 353529, 353811, 353978, 354308, 354532, 354758, 354916, 355268, 355498, 355759, 355985, 356212, 356397, 356663, 356898, 357118, 357281, 357618, 358017, 358354, 358595, 358808, 359043, 359198, 359470, 359752, 359917, 360291, 360534, 360777, 360937, 361272, 361514, 361911, 362188, 362349, 362676, 362996, 363216, 363472, 363636, 363934, 364178, 364406, 364669, 364834, 365151, 365392, 365555, 365879, 366184, 366344, 366696, 366932, 367227, 367379, 367681, 367917, 368095, 368382, 368550, 369009, 369265, 369544, 369697, 369998, 370232, 370469, 370648, 371010, 371304, 371472, 371842, 372063, 372285, 372529, 372704, 373043, 373368, 373533, 373908, 374165, 374466, 374739, 374999, 375174, 375530, 375870, 376105, 376413, 376565, 376866, 377105, 377340, 377571, 377742, 378046, 378432, 378655, 378896, 379090, 379365, 379604, 379852, 380032, 380324, 380551, 380778, 380943, 381304, 381547, 381794, 381957, 382236, 382652, 382883, 383110, 383343, 383517, 383826, 384224, 384490, 384726, 384962, 385209, 385365, 385711, 385976, 386268, 386433, 386778, 387020, 387183, 387515, 387915, 388244, 388504, 388732, 388975, 389149, 389483, 389706, 389960, 390123, 390508, 390765, 391005, 391187, 391513, 391748, 391992, 392166, 392722, 393199, 393528, 393793, 394073, 394237, 394600, 395056, 395315, 395471, 395743, 396140, 396397, 396641, 396877, 397187, 397601, 397866, 398028, 398430, 398913, 399164, 399437, 399598, 399935, 400176, 400437, 400601, 400911, 401147, 401608, 401915, 402134, 402360, 402664, 402831, 403162, 403419, 403644, 403868, 404032, 404340, 404623, 404779, 405074, 405318, 405584, 405760, 406132, 406370, 406614, 406776, 407188, 407480, 407926, 408359, 408610, 408771, 409071, 409294, 409536, 409711, 410073, 410396, 410558, 410901, 411132, 411367, 411536, 411926, 412168, 412419, 412588, 412920, 413208, 413369, 413908, 414154, 414387, 414696, 414906, 415188, 415425, 415664, 415912, 416077, 416452, 416653, 416931, 417189, 417414, 417642, 417927, 418198, 418459, 418755, 419076, 419309, 419575, 419980, 420215, 420468, 420736, 420900, 421200, 421420, 421704, 422009, 422172, 422527, 422791, 423052, 423215, 423535, 423762, 423983, 424221, 424379, 424708, 424968, 425144, 425487, 425736, 425974, 426138, 426504, 426833, 427078, 427308, 427562, 427715, 428036, 428343, 428594, 428997, 429336, 429653, 429901, 430139, 430430, 430737, 430896, 431232, 431484, 431732, 431910, 432183, 432404, 432733, 432965, 433186, 433383, 433842, 434279, 434510, 434737, 435164, 435407, 435669, 435976, 436223, 436510, 437008, 437168, 437455, 437693, 437917, 438107, 438411, 438653, 439072, 439412, 439718, 439891, 440219, 440625, 440845, 441070, 441235, 441501, 441763, 441944, 442253, 442503, 442780, 442936, 443245, 443482, 443802, 444058, 444301, 444580, 444739, 445034, 445299, 445471, 445774, 446200, 446463, 446730, 447144, 447378, 447661, 447820, 448382, 448820, 449098, 449257, 449573, 449886, 450043, 450352, 450688, 450931, 451175, 451343, 451640, 451962, 452119, 452454, 452706, 453197, 453675, 453899, 454264, 454682, 454927, 455190, 455361, 455779, 456021, 456271, 456430, 456838, 457312, 457577, 457864, 458021, 458427, 458669, 458894, 459239, 459561, 459822, 459986, 460277, 460588, 460746, 461064, 461421, 461672, 461931, 462100, 462395, 462611, 462858, 463027, 463337, 463629, 463890, 464060, 464351, 464577, 464849, 465001, 465336, 465580, 465831, 466138, 466402, 466659, 466910, 467240, 467733, 468299, 468548, 468712, 469065, 469285, 469500, 469970, 470393, 470628, 470884, 471044, 471411, 471812, 472031, 472267, 472507, 472678, 472994, 473226, 473446, 473699, 473935, 474160, 474393, 474684, 474950, 475284, 475498, 475721, 476010, 476267, 476677, 477127, 477387, 477562, 477828, 478071, 478388, 478639, 479069, 479330, 479709, 480139, 480372, 480603, 480929, 481193, 481507, 481841, 481994, 482467, 482734, 483055, 483328, 483869, 484114, 484434, 484661, 484903, 485382, 485853, 486081, 486381, 486620, 486848, 487119, 487369, 487622, 487934, 488382, 488639, 488800, 489229, 489503, 489752, 489923, 490227, 490413, 490785, 491010, 491327, 491576, 491850, 492304, 492563, 492725, 493029, 493259, 493516, 493786, 494053, 494332, 494573, 494916, 495238, 495494, 495775, 496111, 496377, 496676, 496837, 497150, 497400, 497638, 497952, 498394, 498705, 498865, 499285, 499734, 499997, 500286, 500637, 500924, 501354, 501589, 502022, 502572, 502818, 503078, 503233, 503609, 504010, 504336, 504664, 505247, 505491, 505782, 506288, 506556, 506731, 507062, 507408, 507650, 507999, 508341, 508624, 509048, 509328, 509588, 509759, 510106, 510426, 510584, 510883, 511138, 511450, 511620, 511920, 512178, 512336, 512661, 512934, 513237, 513520, 513825, 514116, 514350, 514647, 514811, 515195, 515675, 515933, 516220, 516537, 516797, 517069, 517611, 517955, 518213, 518477, 518735, 518982, 519221, 519472, 519637, 519986, 520246, 520486, 521013, 521340, 521611, 521868, 522048, 522374, 522598, 522838, 523061, 523293, 523688, 524037, 524280, 524581, 524842, 525071, 525328, 525721, 525985, 526153, 526581, 527109, 527430, 527659, 527828, 528257, 528537, 528776, 528956, 529222, 529447, 529677, 529928, 530151, 530380, 530621, 530791, 531140, 531399, 531683, 531960, 532276, 532590, 532895, 533191, 533433, 533664, 533902, 534226, 534545, 534710, 535075, 535333, 535500, 536029, 536277, 536607, 536864, 537305, 537705, 538026, 538267, 538539, 538841, 539096, 539441, 539710, 539956, 540201, 540474, 540713, 540910, 541276, 541528, 541790, 542034, 542273, 542673, 543007, 543287, 543581, 543883, 544146, 544326, 544687, 545002, 545245, 545519, 545829, 546177, 546434, 546666, 546962, 547325, 547572, 547927, 548259, 548512, 548784, 549020, 549284, 549588, 549838, 550240, 550521, 550689, 551208, 551447, 551607, 551979, 552265, 552572, 552828, 553243, 553504, 553909, 554205, 554378, 554707, 555027, 555259, 555529, 555764, 556074, 556330, 556623, 556946, 557193, 557439, 557733, 557964, 558213, 558543, 558848, 559111, 559511, 559800, 559955, 560316, 560578, 560839, 561159, 561449, 561617, 561914, 562346, 562595, 562833, 563144, 563645, 563893, 564118, 564297, 564567, 564856, 565123, 565443, 565686, 566003, 566235, 566458, 566679, 566840, 567154, 567616, 568030, 568406, 568653, 568875, 569136, 569426, 569671, 569912, 570188, 570512, 570763, 571005, 571425, 571790, 572074, 572335, 572602, 572827, 572977, 573293, 573543, 573800, 574085, 574355, 574752, 574995, 575288, 575555, 575815, 576138, 576651, 576962, 577184, 577424, 577648, 577886, 578123, 578460, 578708, 578940, 579168, 579416, 579691, 579945, 580323, 580786, 581032, 581264, 581488, 581792, 582050, 582363, 582631, 582871, 583099, 583321, 583534, 583690, 584025, 584353, 584802, 585053, 585228, 585486, 585699, 585912, 586138, 586369, 586535, 586925, 587158, 587396, 587649, 587972, 588218, 588609, 588874, 589042, 589417, 589679, 589970, 590221, 590615, 590906, 591079, 591472, 591699, 591921, 592177, 592437, 592828, 593091, 593258, 593593, 593824, 594048, 594296, 594527, 594761, 595000, 595451, 595747, 595980, 596247, 596487, 596799, 597086, 597332, 597665, 597983, 598252, 598523, 598764, 598983, 599212, 599474, 599768, 600027, 600297, 600532, 600797, 600985, 601279, 601538, 601862, 602103, 602356, 602581, 602809, 603042, 603283, 603705, 603970, 604230, 604472, 604733, 604987, 605220, 605452, 605732, 605979, 606304, 606563, 606797, 607016, 607273, 607526, 607765, 608155, 608399, 608637, 608886, 609198, 609478, 609725, 609889, 610244, 610535, 610790, 611068, 611403, 611804, 612146, 612405, 612693, 613010, 613244, 613474, 613693, 613939, 614369, 614632, 614926, 615192, 615743, 616141, 616407, 616771, 617249, 617693, 617935, 618170, 618538, 618788, 618962, 619329, 619668, 619888, 620120, 620344, 620550, 620855, 621115, 621351, 621790, 622035, 622275, 622706, 622961, 623118, 623448, 623764, 624052, 624346, 624580, 624825, 625105, 625367, 625661, 626140, 626449, 626760, 626991, 627410, 627682, 628030, 628269, 628529, 628765, 629029, 629289, 629555, 629815, 630154, 630443, 630686, 630977, 631297, 631525, 631773, 632077, 632347, 632657, 632897, 633145, 633415, 633717, 633955, 634331, 634677, 634923, 635084, 635494, 635901, 636149, 636418, 636655, 636946, 637436, 637702, 638024, 638268, 638523, 638789, 639140, 639549, 639852, 640072, 640305, 640579, 640868, 641165, 641441, 641689, 641986, 642267, 642663, 642973, 643266, 643569, 643851, 644095, 644317, 644550, 644792, 645054, 645315, 645605, 645836, 646077, 646332, 646637, 647069, 647322, 647586, 647968, 648291, 648538, 648764, 648984, 649237, 649531, 649811
