Results for: 222.dart
========================================
Total Peaks Detected: 2476
Heart Rate: 82.42 BPM
========================================
Peak indices (2476 peaks):
893, 1483, 1779, 2073, 2336, 2645, 2940, 3192, 3521, 3832, 4110, 4406, 4691, 4976, 5236, 5572, 5893, 6194, 6484, 6776, 7032, 7332, 7610, 7894, 8200, 8480, 8763, 9044, 9295, 9605, 9917, 10196, 10516, 10783, 11073, 11357, 11642, 11909, 12242, 12548, 12821, 13126, 13406, 13674, 13962, 14253, 14552, 14868, 15138, 15424, 15709, 15962, 16275, 16572, 16861, 17149, 17415, 17721, 17997, 18256, 18575, 18862, 19155, 19438, 19713, 20002, 20283, 20545, 20880, 21173, 21459, 21737, 22044, 22306, 22586, 22912, 23204, 23476, 23788, 24085, 24349, 24634, 24922, 25219, 25537, 25806, 26127, 26401, 26682, 26988, 27281, 27605, 27896, 28191, 28458, 28769, 29048, 29344, 29665, 29955, 30231, 30546, 30826, 31091, 31399, 31694, 31982, 32277, 32569, 32827, 33128, 33391, 33700, 33995, 34292, 34592, 34899, 35192, 35485, 35802, 36124, 36436, 36744, 37059, 37320, 37634, 37960, 38280, 38604, 38915, 39222, 39524, 39818, 40140, 40464, 40774, 41039, 41363, 41666, 41945, 41945, 42270, 42576, 42863, 43178, 43468, 43743, 44046, 44340, 44640, 44961, 45240, 45530, 45831, 46092, 46376, 46683, 46979, 47266, 47550, 47816, 48100, 48378, 48646, 48965, 49238, 49524, 49808, 50088, 50390, 50657, 50960, 51263, 51565, 51841, 52158, 52436, 52707, 53038, 53331, 53637, 53924, 54237, 54498, 54814, 55110, 55400, 55724, 56018, 56317, 56604, 56904, 57173, 57481, 57792, 58095, 58376, 58686, 58952, 59246, 59549, 59855, 60131, 60449, 60717, 61028, 61296, 61593, 61888, 62193, 62483, 62796, 63078, 63360, 63669, 63958, 64290, 64600, 64908, 65207, 65515, 65818, 66135, 66425, 66751, 67059, 67327, 67649, 67915, 68220, 68544, 68843, 69140, 69435, 69694, 70005, 70293, 70592, 70919, 71207, 71471, 71781, 72056, 72341, 72647, 72941, 73231, 73544, 73806, 74114, 74394, 74663, 75002, 75334, 75635, 75920, 76194, 76482, 76778, 77084, 77393, 77663, 77986, 78261, 78558, 78875, 79174, 79503, 79779, 80106, 80391, 80667, 80980, 81260, 81599, 81905, 82202, 82462, 82780, 83076, 83386, 83696, 84007, 84268, 84584, 84854, 85153, 85453, 85728, 86063, 86354, 86631, 86945, 87214, 87501, 87826, 88128, 88396, 88717, 89018, 89284, 89591, 89895, 90200, 90513, 90794, 91063, 91378, 91652, 91947, 92249, 92550, 92834, 93101, 93410, 93676, 93962, 94262, 94545, 94857, 95146, 95421, 95703, 95971, 96272, 96571, 96844, 97159, 97452, 97717, 98030, 98302, 98605, 98911, 99210, 99488, 99780, 100070, 100328, 100657, 100970, 101251, 101544, 101828, 102108, 102393, 102689, 102989, 103319, 103585, 103904, 104192, 104478, 104795, 105098, 105389, 105713, 106015, 106280, 106595, 106891, 107192, 107524, 107794, 108090, 108401, 108667, 108973, 109275, 109552, 109876, 110164, 110453, 110739, 110993, 111308, 111605, 111899, 112197, 112485, 112764, 113050, 113336, 113618, 113953, 114236, 114532, 114821, 115111, 115370, 115713, 116041, 116361, 116680, 116993, 117293, 117582, 117894, 118176, 118521, 118841, 119141, 119434, 119729, 120059, 120376, 120683, 120946, 121263, 121570, 121831, 122149, 122453, 122750, 123067, 123363, 123627, 123936, 124204, 124546, 124833, 125157, 125430, 125737, 126007, 126300, 126607, 126891, 127193, 127478, 127744, 128054, 128320, 128616, 128911, 129203, 129493, 129778, 130040, 130350, 130609, 130915, 131216, 131513, 131774, 132093, 132369, 132626, 132957, 133251, 133525, 133843, 134120, 134387, 134699, 134975, 135274, 135566, 135860, 136154, 136441, 136737, 136995, 137300, 137603, 137888, 138186, 138473, 138733, 139048, 139320, 139650, 139928, 140221, 140509, 140792, 141077, 141334, 141667, 141976, 142257, 142574, 142868, 143133, 143431, 143730, 144049, 144329, 144647, 144934, 145217, 145491, 145811, 146104, 146403, 146716, 146995, 147288, 147592, 147862, 148161, 148487, 148788, 149061, 149372, 149653, 149913, 150243, 150527, 150855, 151133, 151426, 151714, 151980, 152311, 152637, 152948, 153251, 153561, 153866, 154174, 154482, 154790, 155110, 155384, 155718, 156042, 156341, 156659, 156984, 157304, 157606, 157898, 158193, 158458, 158779, 159114, 159426, 159728, 160001, 160316, 160579, 160892, 161180, 161517, 161791, 162106, 162380, 162667, 162950, 163232, 163567, 163849, 164127, 164443, 164732, 165030, 165310, 165618, 165906, 166227, 166499, 166827, 167086, 167408, 167694, 168052, 168371, 168652, 168948, 169210, 169539, 169826, 170160, 170454, 170747, 171037, 171345, 171611, 171921, 172233, 172506, 172831, 173100, 173407, 173684, 173957, 174295, 174588, 174859, 175156, 175439, 175694, 176009, 176296, 176593, 176881, 177152, 177444, 177704, 177986, 178271, 178568, 178871, 179161, 179435, 179745, 180013, 180278, 180618, 180904, 181206, 181471, 181791, 182054, 182335, 182645, 182944, 183215, 183532, 183813, 184096, 184379, 184661, 184937, 185266, 185542, 185842, 186126, 186387, 186674, 186976, 187284, 187560, 187875, 188149, 188430, 188724, 188997, 189324, 189606, 189892, 190188, 190481, 190739, 191055, 191382, 191695, 192000, 192164, 192546, 192787, 193205, 193565, 193737, 194135, 194304, 194653, 194819, 195189, 195356, 195714, 195882, 196256, 196444, 196629, 196822, 196974, 197353, 197750, 198155, 198540, 198915, 199286, 199637, 199947, 200245, 200555, 200821, 201121, 201387, 201552, 201982, 202349, 202701, 203017, 203330, 203589, 203872, 204134, 204627, 204820, 205203, 205366, 205700, 205866, 206060, 206225, 206527, 206698, 206820, 206992, 207180, 207411, 207618, 207794, 207975, 208159, 208346, 208512, 208711, 208906, 209089, 209421, 209615, 209773, 209938, 210115, 210457, 210853, 211269, 211712, 212165, 212527, 212852, 213225, 213529, 213825, 214124, 214423, 214703, 215010, 215293, 215619, 215900, 216213, 216486, 216764, 217073, 217381, 217693, 217973, 218285, 218581, 218846, 219154, 219470, 219746, 220070, 220227, 220615, 220852, 221225, 221496, 221837, 222009, 222394, 222794, 222958, 223336, 223515, 223927, 224115, 224462, 224628, 225006, 225178, 225364, 225577, 225739, 225906, 226064, 226202, 226416, 226616, 226764, 226932, 227103, 227305, 227487, 227645, 227849, 228037, 228289, 228523, 228734, 229036, 229215, 229408, 229600, 229886, 230294, 230684, 231100, 231514, 231898, 232286, 232677, 233044, 233357, 233644, 233917, 234185, 234483, 234783, 235068, 235353, 235631, 235887, 236193, 236468, 236762, 237061, 237335, 237623, 237917, 238192, 238462, 238761, 239062, 239350, 239662, 239948, 240225, 240505, 240769, 241080, 241383, 241652, 241962, 242241, 242495, 242797, 242962, 243352, 243528, 243855, 244022, 244388, 244617, 244961, 245127, 245488, 245658, 246030, 246283, 246656, 246817, 247163, 247338, 247729, 248023, 248174, 248567, 248873, 249035, 249405, 249656, 249821, 250233, 250407, 250602, 250842, 251016, 251199, 251369, 251531, 251848, 252012, 252215, 252392, 252579, 252760, 252930, 253087, 253243, 253418, 253603, 253992, 254376, 254829, 255290, 255725, 256143, 256482, 256652, 257060, 257228, 257626, 257793, 257969, 258161, 258568, 258741, 259177, 259348, 259597, 259747, 259941, 260157, 260435, 260688, 260914, 261108, 261277, 261489, 261720, 261881, 262079, 262243, 262409, 262604, 262789, 262967, 263162, 263329, 263502, 263682, 263835, 264017, 264201, 264380, 264688, 264885, 265145, 265370, 265567, 265947, 266354, 266806, 267254, 267430, 267831, 268245, 268630, 269014, 269188, 269566, 269931, 270283, 270441, 270757, 270957, 271104, 271460, 271630, 271773, 271909, 272040, 272222, 272405, 272540, 272687, 272845, 273005, 273183, 273378, 273545, 274007, 274344, 274734, 275149, 275587, 276018, 276208, 276499, 276658, 277032, 277407, 277586, 277994, 278172, 278316, 278463, 278594, 278731, 278860, 279001, 279148, 279516, 279909, 280291, 280658, 280986, 281277, 281553, 281835, 282135, 282434, 282726, 283022, 283296, 283577, 283862, 284155, 284467, 284775, 285043, 285361, 285518, 285920, 286089, 286377, 286843, 287033, 287517, 287763, 288059, 288515, 288698, 288950, 289107, 289316, 289547, 289766, 289940, 290113, 290325, 290515, 290696, 291084, 291456, 291814, 292163, 292497, 292846, 293199, 293494, 293783, 294066, 294361, 294629, 294926, 295254, 295545, 295840, 296132, 296424, 296706, 297030, 297347, 297637, 297966, 298129, 298375, 298525, 298692, 298872, 299035, 299202, 299562, 300003, 300368, 300755, 301123, 301514, 301901, 302067, 302411, 302601, 302854, 303196, 303549, 303904, 304103, 304241, 304444, 304610, 304785, 305142, 305496, 305835, 306147, 306453, 306726, 307008, 307284, 307550, 307828, 308139, 308436, 308698, 309011, 309288, 309547, 309871, 310039, 310455, 310633, 310786, 311113, 311273, 311494, 311700, 312012, 312178, 312411, 312753, 312925, 313084, 313253, 313633, 313959, 314382, 314841, 315011, 315467, 315675, 315870, 316288, 316468, 316721, 316882, 317107, 317430, 317576, 317718, 317863, 318128, 318271, 318364, 318491, 318704, 318949, 319394, 319803, 320173, 320526, 320698, 321069, 321430, 321759, 322094, 322415, 322689, 322997, 323280, 323571, 323858, 324145, 324413, 324688, 324964, 325240, 325556, 325721, 326115, 326291, 326530, 326846, 326999, 327239, 327400, 327544, 327686, 327948, 328304, 328669, 328974, 329291, 329615, 329957, 330265, 330579, 330883, 331178, 331477, 331755, 331926, 332336, 332710, 332870, 333116, 333278, 333416, 333604, 333752, 333966, 334142, 334318, 334484, 334708, 334849, 335120, 335313, 335520, 335796, 335977, 336150, 336461, 336674, 336890, 337091, 337455, 337820, 338199, 338647, 339050, 339433, 339804, 340166, 340466, 340770, 341051, 341380, 341658, 341941, 342221, 342515, 342803, 343242, 343677, 344048, 344206, 344612, 344789, 344926, 345145, 345314, 345494, 345658, 345815, 345979, 346134, 346295, 346474, 346716, 346897, 347390, 347791, 348201, 348640, 348809, 349057, 349268, 349451, 349629, 349889, 350228, 350426, 350614, 350822, 350977, 351207, 351407, 351621, 351842, 352009, 352230, 352405, 352612, 352831, 353055, 353292, 353447, 353632, 353869, 354057, 354274, 354536, 354706, 354912, 355069, 355314, 355751, 356003, 356213, 356398, 356684, 356974, 357168, 357420, 357623, 357924, 358187, 358423, 358695, 358895, 359124, 359357, 359615, 359817, 360029, 360337, 360559, 360743, 360892, 361040, 361173, 361382, 361559, 361825, 362033, 362204, 362369, 362518, 362678, 362857, 363079, 363333, 363561, 363827, 364093, 364310, 364469, 364623, 364761, 364983, 365300, 365459, 365681, 365910, 366096, 366350, 366542, 366791, 367000, 367257, 367545, 367795, 367965, 368192, 368390, 368587, 368813, 369021, 369319, 369495, 369638, 369932, 370088, 370225, 370521, 370779, 370936, 371088, 371258, 371569, 371794, 371971, 372158, 372373, 372535, 372939, 373094, 373357, 373563, 373753, 373900, 374052, 374315, 374543, 374785, 375092, 375396, 375583, 375877, 376099, 376278, 376493, 376669, 376812, 376959, 377302, 377553, 377717, 377990, 378250, 378486, 378629, 378776, 379045, 379225, 379397, 379626, 379984, 380220, 380456, 380611, 380822, 380961, 381250, 381539, 381715, 381866, 382054, 382262, 382425, 382655, 382866, 383134, 383395, 383625, 383777, 383914, 384112, 384256, 384404, 384663, 384923, 385129, 385282, 385505, 385672, 385821, 385976, 386235, 386411, 386642, 386905, 387107, 387558, 388016, 388210, 388540, 388939, 389115, 389526, 389691, 390142, 390318, 390752, 391167, 391543, 391904, 392063, 392430, 392795, 393064, 393364, 393630, 393903, 394189, 394477, 394783, 395088, 395367, 395645, 395951, 396225, 396523, 396831, 397120, 397412, 397707, 397957, 398260, 398537, 398839, 399134, 399441, 399721, 400004, 400264, 400573, 400861, 401153, 401454, 401749, 402018, 402326, 402596, 402899, 403171, 403328, 403767, 403943, 404323, 404554, 404892, 405158, 405313, 405717, 405972, 406287, 406579, 406877, 407027, 407414, 407586, 407945, 408263, 408560, 408857, 409142, 409457, 409772, 410085, 410362, 410667, 410926, 411232, 411498, 411983, 412373, 412537, 412899, 413217, 413505, 413667, 414056, 414304, 414704, 415051, 415205, 415576, 415748, 416116, 416297, 416661, 416827, 417207, 417433, 417838, 418114, 418560, 418737, 419094, 419263, 419635, 419800, 420152, 420325, 420720, 420888, 421269, 421439, 421789, 421947, 422330, 422508, 422876, 423048, 423300, 423715, 424106, 424318, 424481, 424831, 425009, 425349, 425524, 425887, 426058, 426400, 426574, 426935, 427158, 427515, 427743, 428083, 428256, 428575, 428770, 429121, 429344, 429491, 429799, 430004, 430314, 430527, 431050, 431396, 431606, 431945, 432147, 432479, 432665, 432990, 433190, 433333, 433675, 433884, 434225, 434394, 434726, 434909, 435280, 435459, 435850, 436015, 436380, 436554, 436897, 437054, 437424, 437597, 437973, 438141, 438511, 438676, 439038, 439196, 439312, 439564, 439732, 439943, 440128, 440431, 440600, 440735, 441005, 441202, 441360, 441523, 441700, 442081, 442415, 442799, 443202, 443604, 444011, 444235, 444654, 444824, 445011, 445416, 445576, 445769, 446174, 446341, 446603, 446765, 446936, 447084, 447238, 447400, 447556, 447708, 447892, 448380, 448741, 449219, 449691, 449855, 450047, 450504, 450683, 450950, 451356, 451526, 451775, 452152, 452310, 452580, 452776, 452997, 453152, 453303, 453452, 453694, 453873, 454021, 454221, 454372, 454528, 454696, 455157, 455560, 455984, 456378, 456755, 457138, 457517, 457717, 458056, 458261, 458396, 458599, 458922, 459263, 459481, 459630, 459771, 459952, 460131, 460308, 460496, 460656, 460828, 460954, 461106, 461331, 461610, 461914, 462242, 462569, 462681, 462854, 463000, 463151, 463384, 463624, 463776, 464031, 464358, 464679, 464984, 465256, 465547, 465832, 466123, 466275, 466405, 466558, 466732, 467041, 467369, 467704, 468040, 468339, 468483, 468617, 468962, 469273, 469423, 469541, 469703, 469984, 470273, 470588, 470859, 471135, 471412, 471665, 471956, 472119, 472535, 472704, 472959, 473116, 473256, 473626, 473782, 473967, 474343, 474512, 474711, 475093, 475292, 475667, 475907, 476047, 476420, 476740, 476924, 477104, 477412, 477718, 477995, 478318, 478479, 478623, 478772, 478960, 479180, 479313, 479479, 479734, 479888, 480041, 480350, 480691, 481065, 481410, 481742, 482097, 482398, 482546, 482691, 482830, 483016, 483225, 483469, 483649, 483834, 484010, 484161, 484322, 484476, 484832, 485186, 485594, 485943, 486384, 486816, 486979, 487405, 487590, 487901, 488062, 488284, 488452, 488618, 488779, 488910, 489201, 489472, 489666, 489819, 489991, 490416, 490739, 491112, 491568, 492024, 492436, 492604, 492978, 493146, 493417, 493581, 493848, 494045, 494229, 494375, 494605, 494819, 494988, 495179, 495342, 495684, 496061, 496427, 496783, 497220, 497670, 498049, 498217, 498443, 498605, 498759, 498922, 499088, 499244, 499680, 499849, 500249, 500632, 501102, 501551, 501913, 502244, 502620, 502785, 503197, 503560, 503718, 503959, 504101, 504301, 504452, 504875, 505206, 505526, 505829, 506121, 506420, 506726, 507026, 507301, 507614, 507766, 508154, 508541, 508712, 508963, 509120, 509318, 509500, 509683, 509895, 510247, 510603, 510988, 511285, 511579, 511881, 512166, 512440, 512707, 513019, 513323, 513603, 513922, 514080, 514337, 514826, 515090, 515532, 515708, 515960, 516386, 516742, 516898, 517112, 517269, 517473, 517703, 518014, 518434, 518846, 519022, 519279, 519720, 520149, 520353, 520505, 521025, 521424, 521611, 521816, 522223, 522393, 522576, 522799, 522964, 523109, 523253, 523397, 523630, 524122, 524588, 525021, 525415, 525622, 525772, 526147, 526324, 526718, 526950, 527101, 527302, 527468, 527676, 527809, 527966, 528105, 528369, 528783, 529175, 529337, 529592, 529740, 529918, 530373, 530794, 531216, 531603, 531975, 532335, 532678, 532844, 532979, 533169, 533366, 533531, 533729, 533901, 534061, 534238, 534434, 534612, 534799, 534930, 535284, 535538, 535655, 535989, 536317, 536615, 536615, 536745, 536922, 537230, 537230, 537522, 537863, 538137, 538421, 538697, 538991, 539153, 539284, 539458, 539596, 539738, 539927, 540160, 540345, 540513, 540740, 540908, 541048, 541242, 541387, 541609, 541818, 542279, 542452, 542651, 542853, 542982, 543341, 543714, 544064, 544409, 544741, 545013, 545287, 545570, 545849, 546127, 546397, 546663, 546919, 547182, 547439, 547722, 547997, 548282, 548557, 548830, 549094, 549356, 549638, 549929, 550213, 550499, 550778, 551033, 551341, 551611, 551884, 552184, 552476, 552629, 552875, 553030, 553170, 553326, 553489, 553680, 553831, 553988, 554179, 554376, 554542, 554723, 554859, 555013, 555169, 555327, 555488, 555653, 555860, 556104, 556285, 556761, 557095, 557506, 557963, 558414, 558813, 559150, 559498, 559779, 560050, 560315, 560605, 560892, 561208, 561507, 561769, 562054, 562340, 562626, 562929, 563236, 563522, 563795, 564111, 564392, 564672, 564979, 565137, 565356, 565525, 565680, 565853, 566000, 566147, 566290, 566451, 566597, 566756, 566916, 567078, 567245, 567414, 567592, 567752, 567941, 568255, 568662, 569110, 569592, 570045, 570429, 570747, 570902, 571102, 571275, 571417, 571629, 572055, 572455, 572834, 573201, 573575, 573946, 574254, 574405, 574547, 574893, 575192, 575339, 575471, 575610, 575779, 575985, 576180, 576408, 576554, 576765, 577026, 577227, 577403, 577534, 577689, 577949, 578167, 578482, 578626, 578755, 578898, 579040, 579186, 579350, 579586, 579766, 579935, 580132, 580382, 580581, 580737, 580884, 581233, 581467, 581672, 581853, 582067, 582301, 582600, 582846, 582986, 583220, 583423, 583657, 583917, 584114, 584298, 584582, 584786, 585001, 585213, 585432, 585692, 585863, 586120, 586311, 586376, 586563, 586932, 587117, 587254, 587390, 587609, 587822, 587822, 587822, 587948, 588073, 588361, 588596, 588847, 589009, 589239, 589459, 589710, 589943, 590105, 590284, 590456, 590705, 590965, 591186, 591374, 591629, 591891, 592226, 592462, 592620, 592779, 593084, 593302, 593443, 593574, 593702, 593954, 594207, 594349, 594551, 594767, 594940, 595096, 595253, 595418, 595651, 595829, 596051, 596264, 596490, 596738, 596916, 597273, 597432, 597714, 597905, 598044, 598210, 598506, 598789, 599023, 599198, 599472, 599629, 599884, 600091, 600269, 600570, 600862, 601064, 601198, 601481, 601731, 601947, 602243, 602419, 602695, 602923, 603088, 603318, 603466, 603730, 603910, 604105, 604399, 604703, 604900, 605374, 605536, 605748, 605958, 606156, 606314, 606597, 606773, 607033, 607229, 607432, 607645, 607891, 608090, 608258, 608539, 608723, 608883, 609036, 609272, 609520, 609802, 609989, 610150, 610347, 610604, 610814, 611056, 611343, 611503, 611705, 611931, 612082, 612234, 612521, 612766, 612923, 613220, 613437, 613577, 613799, 613965, 614182, 614406, 614616, 614873, 615042, 615300, 615455, 615652, 615790, 615920, 616119, 616420, 616702, 616989, 617306, 617517, 617774, 617948, 618099, 618353, 618524, 618673, 618815, 619044, 619342, 619511, 619748, 619936, 620080, 620290, 620513, 620667, 620950, 621113, 621402, 621584, 621758, 621898, 622097, 622267, 622525, 622770, 623036, 623266, 623499, 623816, 623985, 624219, 624445, 624589, 624840, 625131, 625350, 625494, 625752, 625921, 626208, 626356, 626495, 626719, 626959, 627291, 627525, 627751, 627951, 628155, 628426, 628683, 628874, 629106, 629412, 629607, 629758, 629891, 630173, 630411, 630624, 630884, 631188, 631407, 631647, 631824, 631972, 632226, 632454, 632639, 632910, 633136, 633361, 633534, 633798, 634090, 634337, 634512, 634743, 634897, 635210, 635387, 635625, 635837, 636035, 636305, 636616, 636853, 637058, 637245, 637426, 637617, 637816, 638047, 638368, 638527, 638713, 638990, 639135, 639403, 639660, 639869, 640034, 640266, 640512, 640713, 640944, 641233, 641414, 641567, 641695, 641900, 642112, 642324, 642660, 642938, 643152, 643369, 643561, 643876, 644043, 644249, 644388, 644635, 644819, 644983, 645245, 645437, 645570, 645829, 645983, 646302, 646461, 646682, 646977, 647136, 647387, 647554, 647722, 648056, 648240, 648495, 648720, 648986, 649157, 649317, 649601, 649860
