peak_index
759
1856
2125
2383
2646
2909
3176
3445
3711
3967
4239
4515
4780
5037
5300
5568
5841
6107
6371
6646
6920
7185
7443
7708
7977
8250
8474
8777
9045
9321
9587
9850
10118
10389
10666
10942
11209
11478
11760
12035
12307
12584
12851
13130
13403
13668
13932
14213
14483
14743
15009
15276
15547
15825
16098
16372
16663
16942
17210
17489
17767
18046
18317
18583
18848
19126
19391
19643
19906
20170
20437
20708
20973
21233
21509
21777
22036
22251
22570
22849
23050
23341
23630
23922
24207
24481
24758
25031
25314
25581
25850
26124
26300
26669
26934
27203
27462
27734
28001
28269
28541
28823
29096
29361
29635
29903
30179
30456
30730
30995
31270
31534
31784
32048
32313
32579
32849
33112
33372
33643
33912
34171
34430
34699
34971
35237
35499
35759
36020
36292
36559
36819
37093
37358
37629
37893
38151
38413
38682
38945
39206
39462
39727
39991
40262
40521
40779
41056
41331
41602
41868
42139
42412
42685
42860
42993
43413
43618
44045
44324
44586
44878
45162
45423
45694
45966
46215
46499
46764
46994
47296
47572
47759
48091
48364
48560
48904
49168
49363
49694
49928
50164
50491
50754
51032
51292
51546
51808
52067
52330
52598
52851
53103
53372
53640
53892
54144
54396
54675
54949
55211
55456
55753
56028
56295
56550
56818
57085
57353
57604
57855
58120
58386
58640
58891
59060
59396
59661
59914
60170
60432
60704
60963
61216
61478
61732
61995
62189
62472
62747
62983
63291
63557
63817
64090
64362
64639
64906
65165
65431
65701
65959
66210
66476
66739
66961
67241
67516
67739
68062
68331
68596
68868
69134
69407
69677
69942
70204
70477
70748
71011
71280
71541
71812
72079
72341
72601
72875
73146
73413
73674
73939
74209
74480
74738
74998
75275
75552
75821
76084
76351
76618
76889
77157
77419
77686
77962
78222
78475
78735
78987
79248
79511
79776
80036
80315
80586
80847
81115
81334
81636
81931
82201
82467
82741
83008
83263
83516
83774
84031
84301
84558
84816
85080
85348
85612
85868
86137
86403
86679
86941
87203
87471
87740
88005
88261
88525
88784
89055
89312
89569
89826
90101
90359
90610
90868
91124
91391
91657
91916
92170
92446
92710
92962
93231
93494
93763
94036
94301
94560
94830
95087
95344
95599
95861
96117
96382
96634
96889
97149
97414
97677
97934
98196
98458
98730
98985
99245
99503
99774
100035
100294
100502
100799
101327
101588
101839
102106
102365
102624
102889
103150
103414
103680
103936
104190
104455
104730
104992
105249
105510
105768
106034
106240
106524
106793
107076
107351
107610
107871
108131
108396
108656
108911
109160
109424
109693
109953
110206
110464
110727
110985
111249
111425
111772
112053
112320
112576
112839
113098
113362
113629
113887
114146
114410
114671
114929
115186
115442
115705
115975
116237
116496
116765
117036
117297
117552
117812
118064
118333
118590
118850
119109
119382
119644
119898
120164
120427
120697
120970
121233
121495
121772
122034
122289
122551
122815
123084
123348
123609
123861
124125
124387
124640
124892
125153
125419
125685
125945
126137
126430
126711
126984
127252
127523
127799
128076
128338
128601
128878
129144
129410
129673
129935
130200
130467
130721
130976
131239
131511
131778
132037
132306
132561
132828
133023
133306
133608
133895
134165
134425
134675
134956
135230
135494
135762
136027
136310
136580
136842
137115
137390
137677
137957
138230
138492
138765
139025
139281
139535
139795
140059
140322
140577
140826
141081
141345
141603
141852
142110
142359
142616
142872
143122
143370
143627
143879
144132
144378
144631
144884
145138
145388
145634
145885
146153
146407
146661
146912
147165
147416
147675
147919
148161
148415
148678
148932
149176
149428
149680
149935
150201
150451
150702
150966
151225
151482
151729
151987
152239
152493
152741
152990
153243
153510
153768
154014
154268
154492
154786
155045
155274
155547
155808
156062
156314
156557
156808
157055
157295
157549
157796
158041
158304
158554
158800
159046
159294
159545
159801
160044
160282
160538
160800
161044
161291
161539
161776
162027
162276
162523
162761
162961
163253
163505
163721
163998
164241
164489
164735
164984
165218
165467
165707
165950
166195
166437
166679
166931
167134
167420
167667
167921
168167
168417
168651
168860
169139
169392
169589
169869
170111
170365
170607
170856
171097
171313
171575
171829
172077
172321
172543
172812
173074
173323
173570
173820
174063
174315
174562
174776
175013
175298
175546
175790
176037
176294
176542
176790
177042
177289
177533
177793
178035
178278
178526
178778
179021
179273
179525
179779
180025
180288
180545
180785
181038
181292
181555
181819
182069
182322
182586
182846
183099
183343
183593
183847
184102
184349
184565
184810
185110
185372
185628
185886
186137
186391
186652
186896
187141
187393
187650
187901
188144
188393
188632
188888
189148
189396
189634
189888
190147
190394
190642
190842
191096
191375
191635
191885
192128
192386
192637
192885
193134
193388
193645
193898
194150
194397
194653
194904
195150
195388
195628
195866
196066
196357
196608
196836
197101
197346
197595
197838
198086
198327
198576
198818
199066
199298
199550
199795
200038
200278
200497
200766
201030
201271
201519
201764
202021
202267
202512
202756
202940
203250
203500
203746
203985
204221
204474
204715
204925
205183
205432
205651
205907
206150
206394
206603
206870
207118
207352
207585
207788
208008
208251
208472
208699
208905
209133
209359
209585
209798
210013
210228
210432
210653
210867
211084
211283
211499
211705
211929
212129
212348
212536
212749
212933
213148
213346
213565
213743
213960
214144
214370
214546
214766
214938
215150
215316
215536
215710
215930
216114
216331
216493
216722
216906
217120
217279
217495
217674
217888
218062
218291
218450
218669
218847
219065
219260
219475
219652
219867
220033
220243
220437
220657
220831
221051
221202
221417
221630
221841
222019
222238
222399
222616
222801
223018
223197
223404
223587
223808
223986
224202
224385
224590
224767
224988
225177
225393
225598
225816
225996
226218
226406
226623
226829
227042
227227
227435
227785
228096
228289
228500
228803
229064
229294
229555
229811
230050
230296
230538
230774
231008
231259
231491
231720
231949
232194
232432
232674
232911
233149
233385
233626
233868
234108
234341
234576
234811
235056
235301
235544
235781
236031
236276
236522
236762
237006
237254
237500
237747
237998
238242
238504
238753
238999
239249
239497
239748
239957
240242
240495
240741
241004
241256
241504
241752
241999
242249
242498
242743
242981
243223
243479
243727
243972
244220
244468
244719
244975
245221
245463
245714
245970
246216
246451
246696
246942
247186
247430
247669
247904
248145
248394
248634
248873
249111
249357
249601
249848
250096
250342
250588
250842
251089
251332
251569
251816
252064
252312
252484
252669
252956
253241
253495
253745
253990
254244
254490
254742
254983
255224
255473
255728
255973
256217
256463
256708
256963
257220
257463
257704
257958
258216
258461
258710
258959
259202
259455
259700
259945
260179
260426
260676
260916
261150
261398
261642
261892
262084
262356
262529
262796
263129
263371
263614
263797
264111
264604
264773
265095
265584
265754
266056
266230
266535
266710
266970
267147
267498
267671
267998
268173
268476
268652
268962
269136
269352
269519
269821
269999
270372
270540
270864
271081
271359
271533
271844
272025
272326
272506
272813
273055
273291
273534
273766
274008
274247
274481
274709
274953
275191
275432
275656
275899
276141
276381
276626
276865
277100
277337
277589
277829
278056
278291
278534
278780
279023
279259
279496
279741
279990
280235
280472
280707
280956
281203
281454
281699
281941
282191
282448
282695
282937
283184
283431
283681
283940
284190
284438
284642
284943
285120
285354
285683
285928
286175
286429
286671
286907
287159
287415
287659
287898
288144
288388
288637
288887
289136
289382
289637
289824
290010
290292
290582
290842
291098
291349
291598
291847
292107
292358
292600
292845
293092
293345
293596
293832
294076
294322
294579
294828
295069
295315
295560
295814
296076
296311
296557
296742
296940
297235
297521
297793
298053
298315
298523
298825
299048
299341
299577
299843
300076
300344
300586
300854
301080
301341
301565
301845
302065
302341
302583
302832
303042
303333
303578
303820
304008
304311
304561
304805
305057
305308
305564
305810
306066
306312
306572
306822
307068
307319
307570
307822
308015
308306
308520
308795
309047
309292
309534
309780
309958
310174
310484
310744
310990
311233
311495
311738
311980
312221
312467
312712
312959
313202
313444
313680
313937
314176
314422
314658
314913
315158
315403
315649
315852
316120
316385
316640
316885
317130
317379
317635
317881
318130
318377
318557
318837
319018
319271
319588
319840
320088
320349
320596
320843
321093
321350
321601
321844
322095
322343
322601
322794
323073
323871
324121
324336
324584
324869
325122
325372
325612
325856
326114
326358
326594
326844
327085
327341
327597
327846
328021
328227
328548
328814
329062
329313
329564
329820
330079
330327
330578
330837
331091
331338
331579
331832
332078
332328
332573
332811
333061
333314
333561
333801
334045
334284
334489
334773
334944
335293
335810
336313
336484
336813
336986
337330
337499
337825
337999
338339
338511
338832
339010
339337
339506
339767
340048
340304
340562
340812
341051
341293
341542
341785
342029
342276
342525
342766
343016
343266
343512
343758
344006
344254
344508
344757
345009
345259
345521
345745
346018
346267
346518
346770
347021
347266
347511
347762
348020
348263
348506
348750
348991
349244
349495
349740
349986
350235
350492
350741
350983
351228
351469
351718
351973
352178
352453
352954
353205
353443
353688
353929
354175
354421
354661
354898
355143
355393
355637
355865
356109
356348
356596
356841
357088
357327
357586
357843
358093
358337
358591
358846
359097
359344
359591
359838
360100
360351
360602
360855
361101
361358
361619
361870
362118
362379
362645
362903
363153
363413
363671
363931
364112
364281
364658
364841
365101
365332
365707
365880
366219
366395
366677
366841
367198
367498
367746
367996
368246
368465
368740
368983
369232
369475
369729
369975
370199
370459
370682
370949
371208
371429
371699
371956
372208
372464
372704
372953
373195
373392
373701
373944
374151
374445
374699
374916
375192
375404
375667
375850
376082
376252
376471
376634
376858
377037
377257
377428
377655
377823
378044
378220
378448
378624
378850
379011
379250
379426
379656
379827
380040
380213
380457
380618
380859
381038
381266
381433
381674
381847
382086
382254
382469
382641
382880
383043
383286
383460
383694
383865
384110
384281
384536
384707
384947
385116
385375
385544
385815
385985
386245
386414
386674
386855
387095
387268
387514
387683
387948
388127
388402
388571
388857
389031
389406
389758
390017
390268
390522
390778
391029
391268
391523
391776
392021
392263
392515
392756
393008
393256
393505
393751
394010
394195
394471
394726
394989
395244
395503
395752
396003
396254
396514
396768
397008
397251
397496
397700
398000
398244
398492
398750
399005
399255
399495
399750
399997
400250
400497
400744
401001
401265
401518
401763
402016
402268
402524
402784
403033
403280
403538
403798
404051
404300
404549
404795
404990
405296
405472
405733
406057
406309
406561
406802
407057
407309
407557
407804
408047
408298
408558
408808
409051
409299
409553
409806
410065
410311
410556
410810
411065
411320
411563
411816
412056
412311
412560
412806
413043
413295
413548
413797
414040
414220
414493
414675
414977
415210
415517
415709
415994
416255
416510
416763
417016
417272
417530
417778
418027
418288
418540
418788
419032
419285
419536
419783
420037
420280
420524
420780
421027
421265
421510
421756
422014
422266
422520
422768
423024
423281
423532
423774
424022
424270
424459
424734
424903
425190
425514
425770
426018
426264
426511
426759
427009
427255
427501
427748
428006
428248
428492
428742
428984
429232
429487
429725
429967
430221
430481
430734
430975
431232
431480
431736
431990
432238
432484
432742
432997
433245
433493
433741
433995
434243
434489
434733
434979
435235
435484
435726
435973
436224
436475
436728
436971
437222
437467
437718
437965
438209
438458
438709
438966
439221
439467
439722
439978
440229
440477
440724
440976
441231
441487
441732
441978
442223
442481
442726
442963
443211
443461
443714
443971
444222
444469
444720
444984
445230
445473
445725
445973
446231
446490
446736
446985
447241
447501
447753
447998
448253
448501
448756
449010
449264
449508
449769
450025
450272
450512
450763
451005
451256
451500
451749
451996
452256
452504
452755
453001
453252
453507
453759
454006
454259
454516
454774
454988
455246
455522
455770
456033
456289
456540
456785
457047
457301
457549
457797
458041
458289
458537
458784
459029
459272
459532
459780
460021
460274
460522
460777
461032
461279
461523
461779
462038
462293
462540
462798
463050
463303
463549
463794
464038
464292
464538
464782
464971
465248
465423
465733
465905
466272
466445
466787
466961
467296
467464
467801
467972
468309
468479
468805
468985
469317
469491
469819
469998
470330
470506
470838
471007
471329
471512
471830
471996
472316
472492
472813
472990
473314
473480
473805
473985
474274
474438
474798
474975
475314
475496
475820
475993
476325
476499
476819
476986
477313
477486
477811
477985
478302
478478
478805
478981
479299
479472
479798
479974
480303
480476
480797
480972
481303
481477
481787
481960
482286
482463
482797
482967
483281
483464
483802
483976
484286
484457
484723
484913
485219
485398
485730
485907
486249
486426
486742
486917
487240
487427
487753
487931
488257
488436
488773
488950
489272
489444
489771
489945
490273
490449
490773
490955
491284
491463
491778
491960
492287
492475
492795
492968
493308
493493
493814
493990
494312
494480
494818
494993
495318
495490
495827
496005
496315
496492
496806
496987
497296
497475
497783
497959
498282
498457
498765
498932
499251
499429
499727
499898
500236
500414
500753
500932
501246
501421
501744
501922
502236
502407
502726
502903
503215
503391
503696
503881
504186
504357
504672
504848
505153
505335
505645
505821
506127
506315
506622
506795
507119
507290
507602
507787
508105
508270
508590
508770
509098
509274
509591
509772
510078
510270
510578
510746
511065
511241
511566
511748
512061
512239
512555
512744
513059
513233
513562
513735
514071
514257
514579
514754
515084
515268
515590
515760
516090
516263
516594
516775
517087
517261
517593
517775
518086
518262
518595
518771
519105
519277
519606
519767
520109
520286
520601
520778
521101
521280
521613
521860
522046
522352
522602
522846
523083
523327
523567
523814
524061
524305
524540
524786
525033
525279
525512
525751
525994
526240
526484
526736
526976
527233
527481
527727
527974
528218
528466
528720
528960
529201
529452
529708
529955
530195
530443
530690
530942
531198
531441
531682
531940
532195
532449
532688
532946
533190
533447
533699
533945
534199
534465
534724
534970
535233
535489
535688
535975
536155
536433
536779
536962
537239
537535
537787
538039
538293
538465
538742
538914
539188
539519
539769
540018
540267
540513
540769
541010
541242
541485
541735
541973
542203
542449
542678
542937
543188
543418
543673
543924
544176
544419
544648
544904
545099
545375
545555
545789
546139
546394
546600
546892
547132
547357
547621
547876
548126
548379
548618
548866
549126
549342
549615
549865
550063
550362
550609
550791
551091
551278
551516
551902
552086
552714
552990
553242
553497
553754
554014
554262
554506
554758
555006
555196
555518
555773
555952
556283
556539
556703
557047
557229
557495
557838
558078
558271
558525
558715
558950
559125
559343
559743
560074
560278
560637
560907
561100
561445
561697
561884
562212
562471
562668
562971
563215
563412
563712
563962
564154
564450
564704
564889
565125
565410
565674
565937
566186
566425
566669
566910
567153
567405
567636
567870
568116
568367
568605
568838
569077
569318
569559
569810
570049
570288
570538
570792
571044
571284
571532
571779
572030
572279
572531
572774
573026
573278
573526
573772
574025
574279
574540
574795
575051
575313
575586
575804
576030
576359
576567
576905
577088
577334
577700
577972
578226
578481
578735
578989
579241
579504
579750
579998
580260
580512
580744
581004
581262
581509
581764
582015
582270
582513
582778
583032
583278
583527
583779
584028
584277
584519
584765
585006
585261
585511
585751
585998
586251
586503
586756
586937
587216
587391
587684
587995
588242
588492
588738
588995
589246
589489
589730
589982
590229
590474
590648
590918
591090
591341
591681
591930
592170
592392
592659
592915
593158
593401
593639
593888
594140
594385
594568
594857
595040
595269
595632
595825
596116
596116
596303
596655
596823
597160
597340
597667
597833
598153
598322
598649
598828
599147
599312
599648
599824
600157
600330
600651
600823
601157
601329
601642
601818
602154
602327
602647
602823
603140
603318
603643
603817
604122
604304
604624
604804
605112
605287
605600
605774
606094
606271
606575
606748
607070
607250
607560
607738
608058
608232
608559
608739
609046
609232
609549
609727
610034
610217
610535
610715
611030
611208
611527
611713
612014
612195
612505
612689
613013
613196
613504
613680
613994
614181
614489
614663
614968
615147
615456
615637
615953
616122
616445
616626
616917
617181
617434
617678
617926
618188
618431
618629
618913
619189
619444
619692
619940
620120
620336
620678
620936
621184
621445
621703
621955
622199
622450
622700
622947
623202
623449
623696
623954
624208
624455
624703
624955
625208
625467
625716
625963
626223
626480
626735
626920
627201
627375
627606
627981
628157
628428
628742
628993
629236
629484
629728
629979
630234
630477
630718
630970
631223
631473
631717
631970
632216
632465
632717
632910
633186
633372
633608
633964
634211
634416
634716
634906
635145
635475
635734
635991
636246
636491
636738
636980
637235
637481
637723
637971
638220
638469
638720
638969
639224
639474
639733
639984
640231
640488
640746
640997
641241
641498
641750
642008
642267
642522
642767
643025
643281
643528
643775
644030
644285
644534
644785
645032
645279
645536
646031
646480
646795
646984
647303
647565
647820
648079
648335
648588
648841
649092
649350
649601
649851
