Results for: 232.dart
========================================
Total Peaks Detected: 1793
Heart Rate: 59.70 BPM
========================================
Peak indices (1793 peaks):
738, 1370, 1370, 1370, 1660, 1660, 1904, 2158, 2158, 2238, 2830, 3067, 3668, 3911, 4513, 4752, 5344, 5586, 5857, 6484, 6722, 6984, 7234, 7494, 7755, 8005, 8257, 8943, 9892, 10296, 10542, 10798, 11464, 11705, 11975, 12238, 12494, 12749, 13004, 13265, 13527, 13793, 14059, 14321, 15319, 15729, 15967, 16227, 16919, 17164, 17424, 17685, 18404, 18894, 19132, 19393, 19652, 19907, 20169, 20842, 21130, 21561, 21806, 22067, 22520, 22727, 22967, 23232, 23888, 24128, 24386, 24642, 25354, 26102, 26811, 27050, 27308, 27560, 27822, 28083, 28339, 28593, 28852, 29116, 29375, 30010, 30258, 30521, 30780, 31295, 31536, 31797, 32479, 32729, 32995, 33254, 33513, 33771, 34307, 34558, 34826, 35513, 35751, 36021, 36286, 36973, 37213, 37488, 38195, 38438, 38703, 38962, 39669, 39911, 40170, 40875, 41127, 41385, 42070, 42316, 42579, 43251, 43498, 43768, 44443, 44686, 44947, 45201, 45463, 45720, 46395, 46641, 46910, 47177, 47441, 47699, 47957, 48216, 48478, 48742, 49009, 49873, 50370, 50617, 50882, 51136, 51400, 52008, 52262, 52526, 53181, 53435, 53694, 54361, 54607, 54865, 55552, 55800, 56064, 56749, 56993, 57250, 57508, 57770, 58028, 58940, 59457, 59700, 59962, 60639, 60892, 61156, 61420, 61684, 61945, 62628, 62874, 63497, 63734, 64331, 64575, 65170, 65415, 65673, 66324, 66572, 66829, 67464, 67711, 67973, 68612, 68846, 69443, 69690, 69945, 70588, 70830, 71096, 71355, 72003, 72247, 72865, 73097, 73352, 73605, 73864, 74517, 75212, 75456, 75717, 76390, 76625, 76889, 77563, 77802, 78062, 78728, 78977, 79242, 79490, 79742, 80000, 80693, 80935, 81195, 81448, 81706, 81973, 82230, 82498, 82757, 83020, 83284, 83551, 83813, 84081, 84345, 84603, 85178, 85429, 85701, 85964, 86227, 87237, 87711, 87956, 88224, 88487, 88748, 88999, 89262, 89529, 89792, 90516, 90769, 91035, 91733, 91984, 92612, 92856, 93124, 93386, 93648, 94264, 94515, 94790, 95484, 95727, 95990, 96256, 96525, 96788, 97502, 97751, 98409, 98654, 98923, 99182, 99451, 100075, 100323, 100585, 101264, 101509, 101770, 102026, 102984, 103389, 103638, 103903, 104596, 104833, 105097, 105815, 106336, 106583, 106842, 107104, 107370, 107633, 107896, 108162, 108843, 109354, 109597, 109863, 110124, 110389, 111071, 111313, 111579, 111841, 112109, 112376, 113377, 113880, 114123, 114727, 114964, 115227, 115488, 115747, 116001, 116259, 116518, 116789, 117457, 117700, 118332, 118582, 118850, 119503, 119746, 120015, 120268, 120533, 120792, 121457, 121703, 121971, 122231, 122498, 122584, 123092, 123333, 123591, 123848, 124106, 124683, 124925, 125191, 125445, 125706, 126414, 126663, 126927, 127626, 128549, 129049, 129296, 129568, 129832, 130098, 130354, 130616, 130882, 131875, 132338, 132585, 132851, 133110, 133369, 133970, 134218, 134490, 135170, 135415, 135682, 135952, 136210, 136468, 136726, 137699, 138180, 138421, 138686, 138951, 139215, 139477, 139575, 139731, 139878, 140312, 140559, 140828, 141099, 141364, 141624, 141889, 142159, 143184, 143594, 143846, 144110, 144369, 145060, 145311, 145581, 146233, 146474, 146736, 147005, 147279, 147540, 147805, 148064, 148332, 148603, 148867, 149557, 149803, 150068, 150785, 151029, 151294, 151565, 151834, 152097, 153031, 153474, 153724, 153983, 154654, 154909, 155177, 155437, 155698, 156365, 156614, 156885, 157547, 157789, 158057, 158318, 158580, 158840, 159101, 159634, 159885, 160158, 160420, 160681, 160946, 161693, 161933, 162198, 162462, 162727, 163359, 163609, 163870, 164135, 164410, 164674, 164941, 165585, 165829, 166104, 166371, 167349, 167829, 168081, 168341, 169004, 169257, 169533, 170194, 170443, 170714, 170974, 171591, 171833, 172098, 172361, 173084, 173330, 173598, 173867, 174133, 174393, 175095, 175330, 175599, 175862, 176123, 176386, 176643, 177303, 177546, 177797, 178452, 178699, 178965, 179218, 179478, 179730, 179991, 180257, 180518, 181222, 181470, 181727, 181989, 182262, 182521, 182782, 183043, 183637, 183888, 184153, 184413, 184680, 185330, 185574, 185844, 186552, 186798, 187436, 187689, 187952, 188214, 188482, 188744, 189006, 189553, 189804, 190074, 190753, 190999, 191616, 191864, 192130, 192382, 192645, 192914, 193173, 193706, 193946, 194211, 194876, 195124, 195392, 196095, 196346, 196610, 196871, 197133, 197774, 198032, 198300, 198563, 198828, 199490, 199743, 200007, 200267, 200808, 201052, 201321, 201585, 201845, 202109, 202879, 203126, 203397, 203665, 203933, 204198, 204908, 205152, 205424, 206134, 206385, 206651, 206913, 207179, 207852, 208101, 208372, 208639, 209200, 209440, 209711, 209976, 210666, 210914, 211185, 211441, 211709, 211980, 212247, 212518, 212790, 213062, 213331, 214058, 214309, 214580, 214848, 215129, 215793, 216052, 216333, 216599, 217165, 217413, 217685, 217956, 218228, 218783, 219027, 219304, 219574, 219848, 220529, 220784, 221060, 221332, 221901, 222149, 222422, 222696, 222965, 223236, 223513, 224263, 224523, 224800, 225487, 225740, 226008, 226699, 226943, 227204, 227887, 228133, 228399, 228659, 228930, 230039, 230541, 230802, 231078, 231349, 231615, 231886, 232160, 232432, 233544, 234032, 234287, 234559, 235244, 235491, 235767, 236038, 236302, 236937, 237197, 237474, 237743, 238279, 238529, 238804, 239076, 239344, 239995, 240251, 240528, 240792, 241056, 241695, 241954, 242232, 242501, 242772, 243038, 243309, 243585, 244263, 244510, 244783, 245042, 245310, 245574, 245759, 245883, 246100, 246440, 246681, 246825, 246900, 247209, 247422, 247621, 247686, 247949, 248207, 248467, 248731, 248983, 249239, 249500, 249775, 250046, 250311, 250571, 250833, 251101, 251363, 251630, 251902, 252172, 252440, 252708, 252984, 253257, 253527, 253795, 254385, 254632, 255201, 255449, 255716, 255982, 256255, 256517, 256784, 257421, 257660, 257933, 258200, 258463, 258552, 258732, 258996, 259265, 259544, 259814, 260084, 260350, 260624, 261271, 261516, 261779, 262420, 262676, 262944, 263205, 263862, 264102, 264369, 264637, 264899, 265165, 265431, 266082, 266329, 266596, 267217, 267467, 268108, 268356, 268625, 269284, 269526, 269788, 270453, 270700, 270973, 271230, 271489, 272200, 272442, 272704, 272964, 273222, 273482, 273750, 274020, 274281, 274965, 275218, 275488, 276146, 276398, 276662, 276929, 277701, 277947, 278216, 278867, 279105, 279373, 280032, 280281, 280549, 281226, 281475, 281749, 282015, 282697, 282942, 283213, 283872, 284113, 284372, 285053, 285298, 285564, 286231, 286479, 286748, 287005, 287262, 287522, 287789, 288059, 288327, 288587, 288852, 289124, 289390, 289658, 289934, 290617, 290871, 291148, 291414, 291681, 292352, 292602, 292874, 293604, 293851, 294127, 294841, 295092, 295363, 296052, 296300, 296567, 297245, 297503, 297770, 298030, 298842, 299089, 299362, 300043, 300288, 300561, 301236, 301483, 301746, 302003, 302654, 302902, 303168, 303840, 304081, 304347, 305053, 305297, 305564, 305828, 306090, 306747, 306996, 307268, 307532, 307795, 308061, 308321, 308592, 309093, 309335, 309601, 310278, 310529, 311194, 311442, 311714, 312412, 312657, 312923, 313191, 313457, 313721, 313976, 314707, 315686, 316085, 316344, 316552, 316853, 317106, 317366, 318061, 318308, 318570, 318828, 319724, 320211, 320461, 320728, 320986, 321252, 321522, 321786, 322051, 322311, 322582, 323718, 324162, 324420, 324693, 324956, 325219, 325483, 325752, 326381, 326621, 326890, 327586, 327842, 328112, 328376, 329345, 329864, 330113, 330380, 330644, 330908, 331172, 331435, 332114, 332364, 332631, 333322, 333566, 333835, 334104, 334364, 334630, 335293, 335548, 335822, 336085, 336347, 336619, 336885, 337471, 337716, 337983, 338250, 339214, 339631, 339884, 340152, 340849, 341092, 341360, 341633, 341905, 342172, 342435, 342701, 342972, 344485, 344942, 345189, 345458, 345720, 345985, 346251, 346522, 346793, 347908, 348358, 348610, 348871, 349576, 349826, 350098, 350363, 350631, 350903, 351177, 351448, 351716, 352501, 353977, 354424, 354676, 354940, 355199, 355468, 355732, 355999, 356267, 356535, 356800, 357062, 358244, 358691, 358939, 359210, 359865, 360107, 360373, 360641, 360905, 361167, 361427, 362060, 362310, 362580, 362849, 363118, 363879, 364406, 364649, 364921, 365184, 365448, 365718, 365985, 367025, 367437, 367692, 367959, 368229, 368492, 368761, 369035, 369300, 370166, 371138, 371597, 371853, 372126, 372387, 372653, 372914, 373182, 373718, 373962, 374228, 374881, 375133, 375406, 375667, 376350, 376603, 376875, 377139, 377404, 377673, 377936, 378207, 378482, 380596, 381025, 381284, 381560, 381823, 382090, 382349, 382621, 382897, 383162, 383428, 383696, 383965, 384960, 385499, 385754, 386028, 386294, 386562, 386821, 387082, 387349, 387620, 388339, 388850, 389103, 389374, 389642, 390344, 390589, 390860, 391547, 391796, 392066, 392339, 392605, 392871, 393137, 394057, 395012, 395431, 395684, 395950, 396207, 396470, 398057, 398496, 398760, 399027, 399291, 399557, 399821, 400080, 400352, 400622, 400889, 401680, 402683, 403125, 403373, 403641, 403905, 404165, 404424, 404689, 404958, 405224, 405901, 406149, 406410, 406675, 406949, 407211, 408464, 408955, 409198, 409462, 409725, 409987, 410247, 410510, 410770, 411031, 411302, 411565, 411832, 412811, 413536, 413786, 414050, 414318, 414587, 414854, 415117, 415383, 416131, 417577, 418010, 418256, 418525, 418791, 419054, 419324, 419598, 419865, 420138, 420406, 420681, 420957, 421954, 422394, 422653, 422926, 423189, 423453, 423725, 424004, 424277, 424546, 425618, 426053, 426305, 426568, 426836, 427112, 427377, 427645, 428806, 429260, 429512, 429773, 430044, 430321, 430588, 430854, 431124, 431392, 431660, 432789, 433367, 433619, 433896, 434155, 434424, 434694, 434962, 435233, 435511, 435780, 436860, 437401, 437650, 437922, 438194, 438462, 438729, 438999, 439262, 439531, 439813, 440081, 440717, 440975, 441240, 441914, 442165, 442428, 442694, 442970, 443236, 443507, 443780, 444534, 446026, 446332, 446514, 446679, 446883, 447110, 447375, 447599, 447832, 448078, 448849, 449257, 449507, 449778, 450040, 450303, 452324, 452797, 453046, 453307, 453573, 453831, 454100, 454371, 454632, 454893, 455154, 455421, 456354, 456791, 457035, 457303, 457565, 457823, 458087, 458350, 458622, 458893, 459162, 459426, 460546, 461370, 462305, 463208, 463738, 463980, 464244, 464492, 464750, 465010, 465272, 465532, 465791, 467368, 467785, 468039, 468308, 468569, 468819, 469076, 469335, 469589, 469851, 470118, 470377, 471076, 471624, 471873, 472135, 472397, 472663, 472930, 473194, 474687, 475089, 475335, 475596, 475853, 476117, 476377, 476638, 476898, 477156, 477420, 477692, 477952, 478219, 478481, 480082, 480483, 480735, 481006, 481271, 481528, 481785, 482047, 482305, 482567, 483279, 483808, 484058, 484704, 484958, 485229, 485908, 486152, 486421, 486679, 486943, 487221, 487482, 487749, 488512, 490009, 490455, 490700, 490958, 491213, 491479, 491740, 492007, 492278, 492541, 492803, 493859, 494767, 495664, 496168, 496419, 496688, 496948, 497208, 497470, 497730, 497986, 498254, 498520, 498783, 499475, 500403, 500925, 501167, 501434, 501704, 501963, 502220, 502476, 502742, 503010, 503271, 503533, 503793, 504057, 504316, 504583, 504852, 505713, 507152, 507562, 507814, 508081, 508338, 508598, 508860, 509123, 509386, 509654, 509914, 510177, 510446, 512496, 512920, 513166, 513425, 513683, 513943, 514205, 514470, 514738, 514996, 516049, 516887, 517811, 518717, 519617, 520123, 520369, 520633, 520894, 521152, 521405, 521665, 521927, 522182, 522440, 522695, 522947, 523649, 524155, 524402, 524666, 524927, 525195, 525454, 525711, 525972, 526239, 526499, 526767, 527038, 527296, 528060, 528579, 528819, 529086, 529346, 529602, 529865, 530130, 530391, 530650, 530911, 531178, 531448, 531717, 532342, 532594, 532868, 533134, 533408, 534957, 535401, 535656, 535921, 536193, 536466, 536728, 536991, 537254, 537531, 537804, 538072, 539174, 539606, 539853, 540123, 540387, 540658, 540932, 541194, 542181, 542752, 542994, 543257, 543512, 543777, 544044, 544307, 544570, 544843, 545115, 545852, 546838, 547325, 547575, 547837, 548103, 548371, 548640, 548908, 549179, 549447, 549710, 549980, 550256, 550525, 550799, 551946, 552402, 552654, 552919, 553185, 553458, 553721, 553982, 554244, 554512, 554776, 555053, 556005, 556536, 556792, 557066, 557328, 557595, 557868, 558137, 558412, 558683, 558949, 559214, 559483, 559762, 560860, 561306, 561561, 561833, 562106, 562371, 562642, 562920, 563185, 563460, 563732, 564005, 564273, 564970, 565476, 565726, 566006, 566278, 566554, 566821, 567090, 567364, 567639, 567921, 568200, 568478, 568751, 569036, 569924, 570475, 570733, 571010, 571286, 571560, 571829, 572106, 573383, 573987, 574240, 574514, 574785, 575053, 575326, 575607, 575877, 576147, 576419, 577531, 577978, 578231, 578511, 578790, 579062, 579334, 579602, 579878, 580148, 580429, 580709, 580979, 581946, 582340, 582589, 582859, 583127, 583398, 583671, 583945, 584647, 585652, 586068, 586318, 586591, 586853, 587116, 587379, 587638, 588443, 588943, 589192, 589465, 589735, 590009, 590274, 590545, 590815, 591092, 591373, 591643, 592522, 593068, 593327, 593599, 593863, 594135, 594413, 594683, 594954, 595219, 595486, 595760, 596036, 597199, 598166, 598705, 598950, 599221, 599490, 599753, 600022, 600280, 600550, 600826, 601093, 601356, 601620, 601892, 602157, 603038, 603522, 603774, 604045, 604312, 604572, 604837, 605106, 605781, 606712, 607164, 607413, 607674, 607934, 608196, 608455, 608721, 608983, 609245, 609509, 609768, 610039, 610678, 610925, 611203, 611479, 611752, 613354, 613783, 614040, 614336, 614620, 615346, 616251, 617120, 617964, 618802, 619635, 619882, 620137, 620384, 620637, 620896, 621146, 621410, 621673, 621925, 622185, 622442, 622709, 622979, 623243, 623888, 624382, 624630, 624903, 625158, 625416, 625682, 625954, 626216, 626482, 626750, 627014, 627278, 627544, 627813, 628080, 628347, 629049, 629974, 630476, 630725, 630991, 631250, 631509, 631766, 632026, 632298, 632571, 632840, 633565, 634621, 635056, 635312, 635586, 635851, 636113, 636375, 636644, 636916, 637184, 637455, 637726, 637992, 638941, 639446, 639704, 639975, 640244, 640517, 640783, 641050, 641317, 641590, 641871, 642142, 643262, 643835, 644086, 644351, 644623, 644897, 645171, 645444, 645711, 645977, 646245, 646519, 647161, 647412, 647681, 647956, 648230, 648846, 649098, 649368
