Results for: 233.dart
========================================
Total Peaks Detected: 3087
Heart Rate: 102.81 BPM
========================================
Peak indices (3087 peaks):
749, 1819, 2034, 2204, 2449, 2671, 2884, 3059, 3308, 3521, 3729, 3943, 4159, 4374, 4554, 4796, 4954, 5218, 5439, 5583, 5797, 6044, 6253, 6464, 6680, 6891, 7100, 7310, 7476, 7710, 7925, 8103, 8346, 8556, 8766, 8951, 9190, 9400, 9604, 9813, 9975, 10239, 10239, 10382, 10648, 10814, 11057, 11267, 11447, 11692, 11868, 12107, 12314, 12493, 12735, 12916, 13155, 13362, 13564, 13728, 13981, 14186, 14363, 14591, 14776, 14999, 15205, 15412, 15583, 15750, 15750, 16023, 16167, 16442, 16647, 16852, 17053, 17255, 17428, 17665, 17874, 18076, 18252, 18479, 18686, 18896, 19099, 19303, 19489, 19706, 19910, 20119, 20288, 20525, 20733, 20906, 21140, 21352, 21555, 21762, 21965, 22169, 22349, 22579, 22751, 22990, 23196, 23363, 23602, 23785, 23785, 24015, 24219, 24425, 24632, 24832, 24990, 25247, 25452, 25627, 25857, 26035, 26280, 26489, 26663, 26897, 27103, 27309, 27493, 27729, 27934, 28134, 28294, 28543, 28756, 28938, 28938, 29156, 29317, 29733, 29944, 30151, 30357, 30560, 30761, 30968, 31179, 31380, 31583, 31784, 31954, 32186, 32389, 32588, 32791, 32992, 33165, 33388, 33596, 33797, 33983, 34195, 34394, 34598, 34801, 35003, 35192, 35407, 35605, 35805, 36009, 36211, 36412, 36605, 36784, 37004, 37203, 37402, 37606, 37800, 37999, 38196, 38398, 38601, 38803, 39003, 39204, 39406, 39604, 39809, 40003, 40214, 40420, 40620, 40829, 41037, 41240, 41444, 41631, 41855, 42057, 42269, 42481, 42649, 42893, 43075, 43316, 43525, 43701, 43931, 44111, 44351, 44557, 44736, 44982, 45152, 45392, 45561, 45823, 45987, 46246, 46451, 46625, 46858, 47011, 47261, 47477, 47661, 47891, 48080, 48313, 48493, 48725, 48907, 49136, 49344, 49556, 49715, 49969, 50180, 50346, 50592, 50768, 51019, 51200, 51436, 51601, 51860, 52077, 52259, 52498, 52671, 52919, 53100, 53349, 53514, 53680, 53968, 54117, 54394, 54611, 54784, 55033, 55207, 55459, 55680, 55854, 56098, 56277, 56525, 56693, 56925, 57145, 57326, 57561, 57741, 57989, 58207, 58376, 58624, 58799, 59054, 59231, 59480, 59650, 59908, 60119, 60296, 60553, 60784, 60921, 61190, 61403, 61610, 61784, 62029, 62237, 62417, 62648, 62865, 63051, 63051, 63288, 63457, 63701, 63917, 64121, 64332, 64546, 64752, 64926, 65160, 65339, 65577, 65787, 65986, 66147, 66396, 66598, 66805, 66977, 67141, 67382, 67590, 67800, 68010, 68218, 68388, 68622, 68828, 69036, 69250, 69429, 69664, 69839, 70079, 70288, 70457, 70710, 70883, 71123, 71334, 71540, 71708, 71955, 72160, 72365, 72533, 72784, 72994, 73171, 73407, 73575, 73806, 74021, 74233, 74449, 74657, 74864, 75076, 75291, 75499, 75703, 76118, 76287, 76542, 76758, 76936, 77179, 77348, 77604, 77783, 78036, 78247, 78456, 78672, 78882, 79093, 79310, 79515, 79691, 79876, 80145, 80361, 80535, 80760, 80982, 81163, 81395, 81612, 81823, 82035, 82209, 82404, 82663, 82874, 83083, 83290, 83501, 83707, 83916, 84128, 84283, 84549, 84745, 84956, 85167, 85372, 85536, 85779, 85991, 86197, 86411, 86625, 86829, 87036, 87205, 87455, 87627, 87879, 88085, 88255, 88496, 88667, 88919, 89132, 89341, 89549, 89763, 89980, 90188, 90399, 90611, 90824, 91028, 91244, 91460, 91666, 91873, 92046, 92291, 92485, 92716, 92922, 93130, 93293, 93750, 93916, 94180, 94390, 94599, 94817, 95031, 95207, 95452, 95665, 95828, 96091, 96309, 96524, 96738, 96945, 97117, 97374, 97589, 97798, 98011, 98224, 98398, 98646, 98864, 99078, 99289, 99500, 99714, 99897, 100139, 100349, 100559, 100734, 100986, 101150, 101412, 101627, 101836, 102036, 102268, 102479, 102692, 102905, 103075, 103326, 103546, 103770, 103941, 104195, 104352, 104629, 104850, 105068, 105276, 105486, 105659, 105909, 106125, 106338, 106549, 106758, 106932, 107186, 107399, 107610, 107784, 108033, 108246, 108462, 108643, 108886, 109102, 109312, 109493, 109747, 109896, 110171, 110344, 110763, 111262, 111480, 111692, 111912, 112096, 112352, 112565, 112779, 112961, 113210, 113366, 113649, 113820, 114073, 114238, 114508, 114725, 114937, 115151, 115366, 115539, 115793, 116014, 116228, 116401, 116655, 116880, 117093, 117271, 117510, 117721, 117933, 118111, 118362, 118576, 118789, 118961, 119215, 119439, 119655, 119829, 120079, 120298, 120513, 120688, 120949, 121168, 121379, 121555, 121814, 122030, 122244, 122415, 122667, 122816, 123027, 123311, 123529, 123741, 123955, 124176, 124354, 124608, 124823, 125042, 125216, 125476, 125701, 125921, 126095, 126351, 126570, 126791, 127009, 127218, 127391, 127643, 127860, 128074, 128253, 128506, 128720, 128933, 129115, 129369, 129589, 129799, 129974, 130219, 130435, 130655, 130826, 131077, 131288, 131503, 131686, 131926, 132133, 132340, 132517, 132761, 132978, 133192, 133366, 133610, 133826, 134046, 134223, 134471, 134682, 134896, 135071, 135325, 135546, 135757, 135934, 136179, 136401, 136619, 136795, 137040, 137256, 137472, 137646, 137898, 138121, 138334, 138505, 138761, 138988, 139201, 139377, 139628, 139843, 140056, 140233, 140485, 140699, 140910, 141080, 141337, 141558, 141771, 141938, 142185, 142402, 142614, 142787, 143043, 143259, 143471, 143649, 143909, 144131, 144343, 144557, 144773, 144936, 145202, 145425, 145638, 145851, 146026, 146281, 146476, 146658, 146935, 147120, 147372, 147565, 147818, 148036, 148214, 148466, 148656, 148908, 149127, 149339, 149522, 149766, 149985, 150163, 150360, 150628, 150812, 151064, 151290, 151506, 151700, 151939, 152158, 152368, 152584, 152769, 153005, 153216, 153428, 153617, 153799, 154063, 154239, 154489, 154700, 154910, 155129, 155339, 155550, 155758, 155973, 156190, 156399, 156602, 156809, 157022, 157230, 157438, 157646, 157851, 158023, 158255, 158470, 158644, 158885, 159088, 159298, 159509, 159723, 159897, 160142, 160357, 160560, 160771, 160986, 161160, 161401, 161596, 161818, 162026, 162239, 162424, 162673, 162876, 163086, 163304, 163521, 163740, 163910, 164159, 164338, 164596, 164819, 165036, 165249, 165459, 165634, 165895, 166112, 166327, 166500, 166756, 166974, 167200, 167376, 167638, 167859, 168085, 168266, 168530, 168749, 168964, 169139, 169139, 169389, 169612, 169831, 170005, 170252, 170465, 170681, 170858, 171110, 171321, 171533, 171713, 171953, 172169, 172388, 172561, 172807, 173024, 173245, 173422, 173667, 173880, 174091, 174268, 174514, 174731, 174939, 175113, 175356, 175572, 175791, 175965, 176207, 176421, 176637, 176816, 177061, 177282, 177670, 177914, 178095, 178350, 178568, 178777, 178988, 179197, 179377, 179623, 179833, 180044, 180217, 180217, 180467, 180687, 180900, 181078, 181317, 181536, 181747, 181925, 182177, 182389, 182597, 182776, 183029, 183239, 183449, 183622, 183867, 184077, 184292, 184475, 184586, 184903, 185120, 185340, 185521, 185770, 185984, 186197, 186376, 186376, 186620, 186841, 187056, 187233, 187233, 187481, 187702, 187920, 188094, 188094, 188342, 188561, 188777, 188947, 188947, 189199, 189423, 189636, 189849, 190061, 190281, 190458, 190708, 190918, 191130, 191309, 191559, 191778, 191989, 192168, 192410, 192631, 192849, 193024, 193273, 193457, 193705, 193923, 194140, 194314, 194569, 194781, 194997, 195176, 195438, 195644, 195856, 196069, 196277, 196494, 196670, 196917, 197129, 197343, 197559, 197774, 197953, 198190, 198402, 198615, 198787, 199041, 199261, 199470, 199643, 199891, 200115, 200326, 200499, 200747, 200951, 201160, 201332, 201582, 201791, 201999, 202167, 202415, 202636, 202846, 203018, 203271, 203479, 203689, 203903, 204120, 204331, 204510, 204748, 204956, 205126, 205399, 205613, 205825, 206002, 206254, 206475, 206693, 206868, 207122, 207299, 207570, 207791, 208002, 208166, 208433, 208652, 208870, 209039, 209302, 209516, 209732, 209909, 210165, 210383, 210595, 210769, 211025, 211250, 211471, 211643, 211896, 212017, 212330, 212498, 212771, 212990, 213206, 213418, 213632, 213807, 214055, 214272, 214483, 214704, 214920, 215100, 215341, 215556, 215772, 215949, 216205, 216424, 216640, 216810, 217067, 217293, 217505, 217679, 217923, 218141, 218347, 218527, 218773, 218988, 219197, 219368, 219626, 219841, 220019, 220266, 220484, 220699, 220916, 221131, 221305, 221558, 221772, 221987, 222204, 222415, 222618, 222794, 222923, 223252, 223422, 223683, 223899, 224106, 224270, 224440, 224440, 224742, 224961, 225174, 225382, 225592, 225775, 226019, 226208, 226382, 226648, 226823, 227078, 227260, 227499, 227693, 227927, 228102, 228352, 228569, 228785, 228959, 229209, 229413, 229641, 229853, 230063, 230273, 230480, 230692, 230907, 231072, 231236, 231526, 231713, 231962, 232127, 232383, 232598, 232777, 233027, 233201, 233466, 233683, 233893, 234108, 234331, 234488, 234755, 234969, 235181, 235342, 235603, 235824, 236035, 236204, 236458, 236677, 236895, 237068, 237320, 237534, 237712, 237964, 238185, 238398, 238614, 238819, 239029, 239247, 239457, 239667, 239873, 240078, 240235, 240497, 240710, 240882, 241127, 241298, 241555, 241772, 241947, 242191, 242407, 242618, 242826, 243039, 243253, 243461, 243627, 243874, 244089, 244262, 244506, 244673, 244921, 245091, 245343, 245507, 245764, 245974, 246146, 246146, 246391, 246569, 246817, 246987, 247233, 247400, 247649, 247862, 248040, 248280, 248443, 248668, 248842, 249093, 249268, 249506, 249716, 249895, 250136, 250314, 250566, 250777, 250984, 251146, 251414, 251632, 251846, 252057, 252268, 252477, 252659, 252901, 253063, 253324, 253540, 253752, 253929, 254121, 254379, 254537, 254803, 255018, 255195, 255442, 255655, 255864, 256077, 256294, 256469, 256715, 256877, 257126, 257342, 257558, 257734, 257984, 258203, 258414, 258590, 258848, 259065, 259276, 259447, 259702, 259917, 260131, 260303, 260549, 260755, 260930, 261181, 261389, 261594, 261801, 262011, 262218, 262405, 262643, 262810, 263060, 263269, 263445, 263700, 263913, 264116, 264297, 264539, 264751, 264965, 265137, 265393, 265604, 265773, 266036, 266254, 266469, 266640, 266898, 267114, 267331, 267511, 267760, 267978, 268192, 268373, 268631, 268851, 269060, 269235, 269485, 269702, 269917, 270094, 270339, 270549, 270760, 270939, 271184, 271399, 271610, 271785, 272034, 272254, 272432, 272684, 272900, 273113, 273331, 273545, 273760, 273968, 274129, 274387, 274600, 274813, 274980, 275238, 275445, 275622, 275881, 276093, 276307, 276519, 276733, 276944, 277160, 277335, 277584, 277794, 277967, 278223, 278401, 278645, 278848, 279021, 279264, 279476, 279685, 279899, 280109, 280314, 280528, 280746, 280959, 281168, 281375, 281585, 281792, 282003, 282213, 282419, 282623, 282827, 283032, 283246, 283463, 283576, 283859, 284012, 284278, 284491, 284706, 284873, 285106, 285328, 285544, 285757, 285975, 286183, 286350, 286596, 286805, 287011, 287205, 287205, 287420, 287625, 287836, 288051, 288256, 288430, 288674, 288884, 289090, 289301, 289515, 289719, 289924, 290127, 290337, 290548, 290723, 290956, 291164, 291369, 291570, 291775, 291988, 292189, 292362, 292598, 292822, 293023, 293196, 293434, 293641, 293856, 294034, 294276, 294488, 294662, 294902, 295114, 295331, 295539, 295749, 295952, 296161, 296338, 296579, 296793, 296968, 297211, 297422, 297634, 297852, 298065, 298236, 298482, 298698, 298912, 299092, 299340, 299549, 299758, 299937, 300178, 300350, 300603, 300761, 301021, 301236, 301412, 301539, 301875, 302091, 302297, 302473, 302726, 302940, 303148, 303357, 303570, 303740, 303988, 304205, 304410, 304614, 304822, 305033, 305255, 305455, 305620, 305863, 306033, 306279, 306463, 306704, 306856, 307115, 307326, 307509, 307748, 307921, 308165, 308353, 308582, 308795, 309007, 309177, 309427, 309628, 309809, 310061, 310236, 310477, 310653, 310896, 311059, 311319, 311535, 311710, 311952, 312124, 312378, 312593, 312768, 313008, 313181, 313432, 313612, 313862, 314077, 314250, 314495, 314676, 314927, 315141, 315316, 315563, 315735, 315987, 316165, 316420, 316594, 316841, 317055, 317272, 317443, 317697, 317909, 318118, 318290, 318538, 318749, 318924, 319161, 319331, 319585, 319809, 320018, 320229, 320439, 320618, 320858, 321072, 321289, 321463, 321702, 321915, 322133, 322302, 322551, 322759, 322968, 323138, 323349, 323602, 323775, 324028, 324235, 324444, 324617, 324864, 325072, 325276, 325442, 325684, 325890, 326068, 326300, 326476, 326714, 326924, 327102, 327340, 327498, 327745, 327961, 328168, 328381, 328590, 328795, 329001, 329204, 329417, 329623, 329831, 330032, 330233, 330438, 330641, 330847, 331029, 331029, 331253, 331456, 331661, 331844, 332070, 332246, 332480, 332687, 332889, 333073, 333303, 333479, 333710, 333911, 334116, 334326, 334528, 334702, 334702, 334927, 335100, 335332, 335538, 335747, 335952, 336156, 336353, 336562, 336776, 336980, 337186, 337388, 337593, 337774, 338002, 338207, 338411, 338593, 338593, 338814, 339020, 339230, 339403, 339638, 339839, 340045, 340247, 340455, 340659, 340866, 341086, 341274, 341481, 341660, 341660, 341894, 342097, 342297, 342499, 342702, 342909, 343110, 343315, 343517, 343715, 343918, 344123, 344325, 344528, 344727, 344927, 345128, 345306, 345538, 345745, 345949, 346148, 346351, 346559, 346761, 346965, 347166, 347367, 347546, 347771, 347947, 348184, 348359, 348463, 348779, 348996, 349201, 349408, 349613, 349819, 350026, 350236, 350446, 350653, 350859, 351062, 351271, 351487, 351692, 351860, 352096, 352257, 352514, 352727, 352943, 353147, 353324, 353554, 353742, 353985, 354195, 354363, 354602, 354776, 355224, 355440, 355649, 355817, 356061, 356238, 356488, 356701, 356870, 357113, 357285, 357539, 357755, 357926, 358170, 358340, 358594, 358813, 359025, 359232, 359440, 359618, 359858, 360033, 360290, 360441, 360709, 360924, 361142, 361300, 361561, 361772, 361980, 362139, 362398, 362616, 362787, 363031, 363201, 363455, 363674, 363882, 364052, 364294, 364511, 364716, 364895, 365140, 365349, 365554, 365732, 365977, 366188, 366397, 366571, 366810, 367022, 367234, 367446, 367656, 367835, 368068, 368281, 368496, 368707, 368913, 369090, 369324, 369478, 369739, 369949, 370156, 370363, 370570, 370750, 370993, 371205, 371406, 371559, 371796, 372007, 372184, 372184, 372425, 372573, 372841, 373054, 373263, 373418, 373679, 373883, 374088, 374247, 374500, 374711, 374918, 375073, 375323, 375532, 375710, 375949, 376161, 376364, 376569, 376775, 376946, 377192, 377357, 377608, 377811, 377985, 377985, 378225, 378395, 378636, 378840, 379014, 379248, 379417, 379660, 379868, 380044, 380273, 380448, 380699, 380907, 381112, 381321, 381529, 381704, 381941, 382155, 382360, 382514, 382768, 382982, 383195, 383403, 383606, 383738, 383988, 384201, 384412, 384629, 384835, 385015, 385249, 385405, 385678, 385893, 386099, 386304, 386515, 386724, 386935, 387142, 387303, 387531, 387703, 387962, 388173, 388384, 388539, 388704, 389002, 389171, 389436, 389645, 389857, 390068, 390283, 390463, 390702, 390909, 391117, 391265, 391502, 391719, 391935, 392086, 392349, 392560, 392781, 392945, 393204, 393416, 393626, 393787, 394044, 394261, 394399, 394644, 394852, 395064, 395281, 395486, 395691, 395867, 396102, 396311, 396520, 396706, 396706, 396938, 397151, 397570, 397787, 397999, 398174, 398408, 398586, 398833, 398988, 399255, 399467, 399672, 399881, 400095, 400269, 400513, 400722, 400929, 401135, 401349, 401563, 401767, 401977, 402178, 402357, 402597, 402807, 403012, 403215, 403422, 403593, 403831, 404044, 404246, 404449, 404654, 404866, 405077, 405284, 405485, 405666, 405899, 406063, 406316, 406531, 406737, 406939, 407096, 407312, 407572, 407744, 407986, 408152, 408402, 408613, 408788, 409034, 409203, 409449, 409662, 409877, 410086, 410295, 410504, 410676, 410917, 411070, 411341, 411555, 411764, 411969, 412179, 412362, 412599, 412806, 413012, 413225, 413433, 413612, 413746, 414056, 414213, 414475, 414691, 414903, 415112, 415317, 415523, 415704, 415943, 416106, 416365, 416575, 416780, 416936, 417105, 417105, 417396, 417561, 417817, 418027, 418200, 418441, 418615, 418864, 419072, 419246, 419489, 419665, 419818, 420116, 420327, 420539, 420716, 420957, 421173, 421342, 421580, 421747, 422011, 422222, 422395, 422633, 422802, 423048, 423211, 423472, 423682, 423860, 424092, 424306, 424525, 424703, 424937, 425148, 425362, 425536, 425778, 425998, 426207, 426382, 426623, 426844, 427056, 427235, 427477, 427689, 427902, 428079, 428332, 428542, 428754, 428931, 429178, 429397, 429606, 429778, 430015, 430186, 430437, 430653, 430861, 431013, 431273, 431484, 431698, 431902, 432115, 432320, 432526, 432730, 432939, 433151, 433356, 433563, 433764, 433973, 434184, 434387, 434592, 434796, 435005, 435207, 435388, 435626, 435835, 436046, 436219, 436468, 436623, 436901, 437110, 437319, 437537, 437698, 437958, 438173, 438382, 438530, 438793, 439015, 439226, 439440, 439644, 439817, 440064, 440285, 440494, 440670, 440912, 441121, 441333, 441517, 441757, 441927, 442177, 442393, 442600, 442812, 442994, 443233, 443447, 443659, 443840, 444084, 444301, 444508, 444684, 444931, 445101, 445369, 445584, 445796, 445944, 446181, 446440, 446584, 446763, 447056, 447274, 447486, 447701, 447918, 448092, 448330, 448545, 448765, 448941, 449191, 449409, 449623, 449797, 450048, 450271, 450485, 450660, 450906, 451110, 451336, 451546, 451750, 451958, 452174, 452384, 452595, 452779, 453020, 453231, 453446, 453630, 453882, 454099, 454310, 454483, 454737, 454958, 455179, 455392, 455606, 455820, 456039, 456214, 456467, 456681, 456893, 457068, 457328, 457552, 457767, 457940, 458199, 458427, 458647, 458824, 459076, 459291, 459507, 459684, 459943, 460160, 460375, 460546, 460806, 461031, 461248, 461421, 461675, 461891, 462108, 462285, 462543, 462760, 462970, 463151, 463406, 463618, 463824, 463999, 464248, 464462, 464674, 464856, 465101, 465315, 465527, 465711, 465958, 466173, 466384, 466559, 466810, 467028, 467247, 467418, 467668, 467881, 468097, 468281, 468525, 468735, 468945, 469128, 469369, 469586, 469797, 469979, 470218, 470435, 470652, 470830, 471078, 471291, 471502, 471679, 471923, 472144, 472351, 472531, 472770, 472990, 473202, 473387, 473622, 473836, 474046, 474223, 474477, 474690, 474899, 475073, 475264, 475544, 475719, 475964, 476180, 476392, 476561, 476812, 477031, 477239, 477409, 477586, 477870, 478035, 478294, 478497, 478704, 478913, 479118, 479297, 479297, 479538, 479751, 479953, 480139, 480323, 480582, 480765, 480993, 481170, 481401, 481608, 481810, 481973, 482218, 482416, 482619, 482798, 482977, 483229, 483430, 483630, 483830, 484004, 484187, 484446, 484652, 484815, 485053, 485262, 485436, 485579, 485720, 486056, 486225, 486419, 486674, 486851, 487231, 487495, 487657, 487917, 488124, 488327, 488531, 488702, 488939, 489138, 489309, 489560, 489766, 489976, 490164, 490391, 490591, 490771, 491000, 491204, 491412, 491596, 491826, 492030, 492237, 492418, 492580, 492751, 493051, 493266, 493476, 493651, 493893, 494063, 494317, 494524, 494731, 494947, 495155, 495363, 495569, 495776, 495951, 496193, 496412, 496620, 496800, 497038, 497256, 497470, 497650, 497884, 498095, 498306, 498485, 498729, 498942, 499150, 499323, 499562, 499781, 499987, 500167, 500406, 500619, 500827, 501010, 501260, 501473, 501682, 501860, 502110, 502330, 502543, 502716, 502957, 503172, 503385, 503561, 503806, 504019, 504225, 504403, 504653, 504865, 505075, 505253, 505495, 505705, 505918, 506103, 506345, 506558, 506767, 506951, 507201, 507416, 507621, 507783, 508037, 508247, 508455, 508667, 508878, 509084, 509296, 509516, 509726, 509937, 510144, 510359, 510568, 510781, 510964, 511202, 511407, 511628, 511807, 512057, 512233, 512486, 512703, 512919, 513086, 513355, 513573, 513788, 513948, 514213, 514435, 514650, 514813, 515067, 515282, 515492, 515666, 515926, 516137, 516346, 516509, 516707, 516992, 517165, 517423, 517644, 517860, 518038, 518304, 518484, 518741, 518961, 519185, 519404, 519621, 519830, 520047, 520258, 520476, 520655, 520906, 521119, 521326, 521506, 521759, 521942, 522183, 522397, 522612, 522772, 523038, 523253, 523464, 523623, 523886, 524105, 524317, 524486, 524673, 524944, 525117, 525368, 525545, 525794, 525969, 526125, 526440, 526660, 526877, 527051, 527303, 527484, 527732, 527948, 528158, 528322, 528579, 528797, 529012, 529180, 529430, 529645, 529856, 530017, 530280, 530498, 530708, 530875, 531068, 531342, 531520, 531978, 532193, 532364, 532608, 532786, 533036, 533246, 533454, 533617, 533881, 534094, 534261, 534510, 534727, 534943, 535115, 535367, 535584, 535795, 535971, 536225, 536443, 536653, 536828, 537076, 537292, 537508, 537687, 537932, 538146, 538356, 538536, 538785, 539003, 539212, 539381, 539625, 539847, 540062, 540239, 540481, 540693, 540905, 541089, 541329, 541543, 541753, 541930, 542170, 542383, 542599, 542772, 543014, 543227, 543445, 543621, 543864, 544079, 544289, 544466, 544710, 544929, 545140, 545318, 545555, 545772, 545993, 546166, 546407, 546619, 546833, 547004, 547255, 547476, 547680, 547855, 548090, 548310, 548522, 548702, 548702, 548937, 549151, 549362, 549545, 549782, 549957, 550207, 550364, 550622, 550837, 551045, 551250, 551455, 551666, 551873, 552086, 552268, 552507, 552692, 552873, 553153, 553372, 553591, 553764, 554014, 554229, 554449, 554626, 554880, 555097, 555306, 555485, 555739, 555955, 556162, 556336, 556587, 556806, 557026, 557203, 557460, 557675, 557897, 558077, 558331, 558546, 558760, 558937, 559184, 559402, 559617, 559788, 560033, 560250, 560471, 560644, 560897, 561112, 561330, 561503, 561754, 561975, 562188, 562363, 562613, 562837, 563054, 563233, 563476, 563691, 563903, 564084, 564341, 564554, 564765, 564938, 565186, 565403, 565617, 565789, 566037, 566255, 566473, 566653, 566902, 567120, 567330, 567508, 567764, 567978, 568183, 568359, 568598, 568807, 569021, 569206, 569440, 569649, 569858, 570035, 570287, 570502, 570675, 570922, 571132, 571346, 571522, 571768, 571980, 572183, 572358, 572609, 572824, 573026, 573200, 573444, 573650, 573864, 574042, 574289, 574498, 574710, 574892, 575142, 575356, 575563, 575735, 575981, 576199, 576410, 576585, 576835, 577045, 577253, 577438, 577680, 577889, 578098, 578277, 578516, 578733, 578947, 579123, 579361, 579572, 579783, 579964, 580206, 580415, 580621, 580798, 581036, 581250, 581464, 581639, 581877, 582090, 582308, 582482, 582725, 582938, 583150, 583327, 583571, 583790, 584000, 584175, 584416, 584635, 584852, 585030, 585271, 585488, 585699, 585876, 586126, 586345, 586558, 586732, 586983, 587208, 587419, 587593, 587835, 588056, 588268, 588444, 588700, 588918, 589128, 589304, 589557, 589774, 589986, 590157, 590406, 590622, 590836, 591018, 591262, 591480, 591694, 591876, 592126, 592346, 592556, 592727, 592980, 593201, 593419, 593592, 593837, 594052, 594270, 594450, 594570, 594900, 595073, 595327, 595484, 595752, 595970, 596182, 596390, 596607, 596829, 597039, 597216, 597462, 597649, 597817, 598097, 598322, 598533, 598707, 598952, 599174, 599387, 599563, 599805, 600020, 600234, 600409, 600409, 600663, 600878, 601094, 601264, 601514, 601735, 601949, 602120, 602369, 602587, 602800, 602976, 603223, 603441, 603653, 603828, 604090, 604308, 604522, 604697, 604954, 605171, 605393, 605576, 605825, 606006, 606257, 606432, 606695, 606877, 607123, 607292, 607552, 607774, 607998, 608212, 608426, 608598, 608734, 609081, 609304, 609520, 609694, 609954, 610123, 610398, 610619, 610834, 610998, 611266, 611486, 611658, 611912, 612129, 612304, 612563, 612723, 613001, 613220, 613392, 613653, 613879, 614099, 614269, 614525, 614743, 614961, 615138, 615398, 615575, 615818, 616035, 616251, 616468, 616678, 616851, 617102, 617319, 617537, 617716, 617970, 618188, 618405, 618585, 618835, 619055, 619268, 619439, 619688, 619906, 620124, 620294, 620543, 620757, 620973, 621153, 621329, 621610, 621787, 622039, 622263, 622483, 622661, 622912, 623124, 623345, 623527, 623701, 623980, 624153, 624412, 624631, 624848, 625025, 625275, 625486, 625705, 625887, 626066, 626346, 626521, 626780, 626997, 627212, 627388, 627643, 627857, 628072, 628248, 628430, 628707, 628855, 629132, 629349, 629566, 629743, 629993, 630169, 630428, 630601, 630874, 631096, 631310, 631486, 631662, 631781, 632137, 632309, 632572, 632786, 633003, 633218, 633431, 633601, 633850, 634008, 634276, 634492, 634710, 634879, 635131, 635348, 635570, 635744, 635990, 636198, 636414, 636584, 636762, 637044, 637202, 637466, 637634, 637897, 638113, 638291, 638529, 638706, 638953, 639173, 639352, 639606, 639825, 640024, 640235, 640453, 640665, 640840, 641078, 641290, 641497, 641705, 641917, 642120, 642325, 642492, 642742, 642951, 643159, 643317, 643498, 643777, 643935, 644201, 644409, 644579, 644816, 644994, 645245, 645418, 645661, 645834, 646079, 646242, 646505, 646727, 646940, 647154, 647367, 647545, 647807, 648026, 648240, 648398, 648653, 648873, 649090, 649266, 649517, 649729, 649946
