peak_index
684
1563
1795
2043
2290
2528
2759
2994
3227
3464
3704
3938
4167
4401
4646
4881
5108
5339
5573
5805
6037
6272
6506
6737
6974
7211
7446
7677
7910
8143
8381
8622
8853
9084
9323
9568
9805
10034
10266
10503
10742
10982
11211
11442
11674
11916
12148
12379
12609
12845
13073
13311
13547
13781
14010
14250
14489
14724
14952
15186
15416
15652
15892
16121
16349
16582
16828
17061
17289
17519
17756
17992
18231
18464
18698
18927
19171
19404
19638
19863
20094
20321
20553
20786
21014
21238
21470
21705
21937
22162
22393
22624
22859
23098
23326
23558
23786
24026
24255
24486
24713
24943
25168
25403
25638
25868
26091
26330
26569
26804
27029
27260
27490
27724
27964
28195
28423
28655
28896
29128
29358
29588
29826
30056
30292
30523
30755
30981
31217
31453
31685
31909
32139
32367
32603
32837
33066
33291
33520
33757
33988
34217
34441
34675
34905
35140
35374
35605
35832
36070
36308
36542
36768
36998
37225
37460
37695
37924
38151
38386
38628
38861
39090
39323
39558
39790
40025
40261
40495
40723
40963
41204
41440
41670
41902
42133
42370
42613
42843
43070
43303
43546
43781
44008
44236
44469
44702
44933
45163
45392
45611
45840
46078
46313
46543
46778
47010
47248
47486
47716
47946
48181
48425
48662
48894
49127
49364
49606
49847
50079
50312
50544
50788
51023
51258
51489
51726
51958
52198
52432
52665
52896
53139
53376
53609
53839
54070
54299
54534
54773
55002
55228
55463
55704
55935
56160
56390
56625
56860
57099
57332
57564
57793
58034
58266
58498
58724
58957
59184
59416
59651
59882
60108
60345
60585
60820
61049
61281
61515
61752
61992
62223
62456
62694
62940
63172
63399
63629
63862
64096
64334
64563
64794
65023
65265
65500
65735
65966
66200
66430
66670
66908
67141
67366
67602
67840
68074
68299
68529
68758
68991
69227
69454
69681
69911
70153
70385
70616
70843
71079
71308
71544
71776
72007
72231
72704
72939
73164
73396
73629
73867
74107
74343
74580
74814
75057
75291
75523
75753
75987
76218
76452
76685
76915
77141
77378
77614
77849
78075
78309
78542
78783
79024
79255
79483
79721
79963
80197
80424
80658
80891
81126
81363
81597
81826
82056
82295
82531
82765
82998
83235
83466
83703
83944
84178
84407
84645
84887
85121
85346
85579
85810
86048
86289
86521
86753
86992
87240
87481
87713
87949
88189
88432
88676
88911
89146
89386
89632
89869
90104
90341
90581
90824
91069
91308
91547
91787
92038
92275
92512
92749
92989
93228
93471
93706
93941
94176
94423
94662
94896
95131
95371
95609
95850
96090
96325
96558
96799
97036
97268
97495
97728
97955
98186
98419
98644
98868
99098
99334
99563
99788
100014
100246
100478
100712
100941
101168
101393
101626
101860
102093
102315
102541
102769
103005
103245
103471
103699
103932
104175
104405
104635
104863
105096
105325
105560
105790
106019
106243
106478
106709
106941
107167
107397
107625
107858
108096
108324
108555
108784
109028
109257
109486
109717
109951
110180
110417
110652
110885
111110
111349
111589
111824
112052
112285
112520
112760
113001
113240
113472
113712
113956
114193
114422
114658
114894
115136
115375
115605
115838
116075
116320
116555
116788
117022
117261
117501
117743
117980
118216
118450
118697
118938
119174
119405
119641
119872
120112
120347
120582
120814
121063
121305
121545
121779
122019
122253
122493
122734
122970
123200
123441
123681
123918
124147
124384
124621
124863
125108
125347
125582
125828
126073
126316
126550
126789
127028
127276
127525
127766
128002
128246
128491
128734
128968
129207
129443
129688
129934
130174
130410
130660
130908
131151
131390
131633
131874
132122
132370
132611
132848
133095
133340
133583
133819
134058
134294
134537
134785
135024
135256
135495
135741
135978
136205
136436
136667
136903
137140
137372
137599
137832
138074
138309
138542
138775
139014
139254
139493
139731
139965
140199
140442
140682
140919
141151
141382
141615
141850
142091
142321
142551
142785
143028
143263
143495
143729
143965
144206
144451
144687
144919
145155
145401
145636
145869
146102
146342
146582
146824
147064
147303
147542
147794
148033
148269
148504
148746
148981
149221
149457
149693
149923
150164
150404
150641
150874
151116
151351
151593
151835
152076
152310
152554
152798
153039
153269
153506
153742
153983
154229
154467
154705
154955
155205
155452
155692
155935
156176
156423
156667
156908
157144
157391
157632
157874
158108
158344
158577
158817
159059
159294
159523
159765
160008
160246
160477
160714
160948
161188
161432
161667
161898
162136
162382
162618
162846
163077
163314
163553
163794
164026
164259
164493
164740
164976
165209
165442
165681
165918
166157
166389
166624
166853
167094
167326
167561
167789
168023
168252
168489
168724
168957
169184
169422
169662
169896
170121
170350
170580
170814
171052
171279
171504
171732
171973
172204
172433
172660
172893
173118
173353
173588
173820
174045
174281
174520
174753
174980
175213
175444
175680
175916
176148
176378
176607
176847
177079
177311
177540
177776
178007
178244
178482
178713
178940
179176
179417
179652
179876
180106
180337
180573
180810
181040
181269
181502
181742
181973
182202
182433
182666
182899
183134
183366
183596
183824
184059
184290
184519
184744
184972
185197
185431
185668
185893
186118
186349
186590
186823
187048
187276
187508
187737
187968
188197
188422
188644
188878
189112
189341
189565
189792
190022
190255
190492
190720
190947
191181
191422
191654
191880
192111
192342
192575
192807
193036
193263
193489
193725
193958
194189
194417
194643
194870
195106
195347
195576
195801
196036
196276
196509
196733
196964
197194
197427
197664
197892
198119
198347
198585
198815
199042
199271
199504
199734
199966
200199
200426
200650
200882
201118
201347
201568
201793
202021
202251
202483
202710
202937
203162
203397
203632
203864
204089
204317
204544
204776
205011
205235
205459
205690
205926
206153
206378
206606
206840
207073
207312
207545
207779
208015
208258
208497
208735
208970
209208
209441
209683
209924
210160
210390
210629
210872
211111
211344
211580
211816
212056
212302
212536
212767
213005
213249
213483
213711
213943
214179
214414
214650
214880
215113
215347
215592
215828
216063
216296
216539
216778
217022
217259
217496
217732
217977
218215
218456
218689
218928
219161
219403
219641
219879
220109
220353
220593
220831
221062
221301
221532
221773
222013
222247
222476
222719
222961
223197
223426
223660
223894
224133
224374
224608
224836
225074
225322
225558
225787
226023
226260
226500
226741
226976
227211
227445
227689
227927
228159
228393
228631
228870
229112
229345
229581
229816
230060
230296
230530
230758
230994
231224
231461
231691
231922
232147
232385
232620
232852
233079
233311
233541
233780
234021
234257
234489
234730
234974
235209
235438
235674
235905
236141
236378
236608
236837
237065
237308
237542
237773
238000
238237
238470
238708
238944
239178
239406
239649
239890
240127
240355
240587
240818
241055
241292
241525
241753
241989
242230
242465
242694
242926
243160
243398
243634
243868
244100
244332
244569
244799
245028
245254
245483
245708
245944
246182
246411
246638
246877
247121
247355
247581
247814
248046
248285
248522
248753
248982
249215
249459
249691
249921
250156
250396
250632
250870
251108
251346
251581
251824
252066
252303
252536
252774
253011
253249
253486
253721
253953
254192
254434
254672
254901
255135
255369
255612
255855
256087
256320
256559
256801
257036
257265
257497
257728
257964
258204
258432
258660
258895
259137
259367
259596
259831
260067
260304
260544
260781
261016
261250
261495
261733
261964
262196
262431
262664
262901
263138
263371
263601
263839
264079
264315
264543
264773
265005
265240
265477
265707
265935
266169
266407
266637
266863
267093
267324
267563
267803
268033
268263
268497
268740
268973
269206
269437
269671
269903
270140
270374
270603
270828
271063
271300
271533
271759
271989
272218
272451
272693
272923
273153
273388
273635
273869
274099
274332
274571
274809
275048
275281
275516
275751
275998
276238
276475
276710
276952
277191
277435
277676
277916
278149
278394
278634
278875
279107
279342
279577
279819
280061
280297
280528
280770
281011
281249
281481
281716
281950
282190
282432
282665
282894
283132
283375
283607
283836
284067
284301
284539
284779
285008
285238
285469
285713
285945
286178
286406
286642
286871
287105
287338
287569
287792
288026
288263
288496
288720
288951
289180
289418
289657
289886
290116
290353
290597
290831
291057
291288
291523
291760
291998
292225
292456
292686
292926
293157
293390
293619
293853
294084
294322
294558
294794
295022
295264
295501
295737
295969
296205
296436
296675
296917
297153
297382
297625
297871
298112
298344
298585
298824
299070
299316
299557
299790
300037
300283
300524
300756
300992
301227
301468
301711
301947
302178
302419
302663
302903
303135
303372
303608
303851
304094
304312
304524
304698
304890
305064
305230
305426
305623
305834
306055
306267
306497
306727
306926
307118
307339
307574
307816
308054
308287
308480
308684
308912
309102
309293
309497
309696
309885
310060
310222
310372
310527
310686
310853
311036
311190
311354
311519
311681
311833
311985
312146
312305
312458
312606
312764
312928
313077
313228
313370
313518
313876
314138
314388
314642
314894
315141
315380
315625
315870
316119
316364
316607
316849
317100
317342
317583
317823
318067
318308
318552
318794
319032
319273
319524
319766
320005
320247
320491
320732
320978
321219
321455
321691
321941
322182
322415
322646
322886
323123
323362
323601
323834
324068
324312
324553
324788
325018
325253
325486
325722
325960
326193
326424
326665
326904
327142
327373
327608
327841
328082
328326
328560
328791
329031
329276
329514
329744
329977
330210
330451
330694
330926
331155
331391
331634
331867
332096
332330
332564
332802
333041
333276
333507
333742
333985
334219
334450
334682
334919
335156
335391
335625
335856
336088
336329
336570
336807
337040
337277
337515
337757
337999
338238
338472
338714
338959
339201
339434
339669
339903
340144
340389
340622
340855
341099
341346
341584
341818
342055
342293
342534
342779
343012
343244
343483
343729
343965
344193
344427
344661
344898
345140
345374
345607
345840
346085
346320
346553
346787
347027
347261
347500
347741
347977
348209
348452
348693
348931
349162
349404
349643
349887
350128
350372
350610
350859
351106
351350
351589
351834
352074
352321
352563
352802
353037
353282
353521
353761
353995
354235
354470
354713
354954
355193
355426
355672
355916
356155
356389
356629
356863
357106
357346
357580
357810
358056
358300
358537
358768
359006
359240
359482
359725
359962
360195
360437
360685
360926
361159
361393
361628
361869
362114
362349
362583
362823
363068
363308
363541
363777
364013
364257
364505
364740
364972
365214
365459
365692
365921
366152
366385
366624
366865
367097
367327
367563
367809
368042
368274
368510
368747
368985
369227
369697
369931
370175
370407
370638
370869
371107
371338
371577
371811
372048
372278
372522
372763
373002
373229
373464
373695
373934
374172
374402
374629
374866
375107
375342
375569
375799
376031
376270
376508
376739
376969
377201
377442
377670
377902
378131
378365
378592
378828
379060
379295
379522
379763
380002
380241
380473
380711
380948
381191
381439
381677
381907
382151
382397
382637
382867
383104
383338
383581
383824
384062
384297
384540
384788
385031
385264
385507
385746
385991
386238
386476
386711
386955
387201
387445
387679
387918
388157
388407
388655
388896
389131
389377
389626
389871
390104
390343
390578
390824
391071
391306
391536
391780
392022
392260
392487
392722
392954
393190
393430
393663
393893
394136
394385
394622
394852
395089
395327
395570
395812
396049
396284
396523
396772
397013
397247
397486
397726
397972
398221
398461
398698
398942
399191
399435
399668
399906
400143
400389
400635
400872
401106
401350
401598
401836
402066
402305
402541
402784
403029
403264
403496
403736
403982
404223
404456
404694
404931
405174
405418
405656
405891
406130
406379
406621
406857
407096
407337
407582
407825
408065
408302
408541
408791
409032
409266
409502
409741
409984
410227
410462
410698
410937
411185
411424
411661
411897
412135
412374
412613
412851
413086
413318
413557
413794
414030
414261
414495
414726
414966
415208
415443
415672
415914
416156
416391
416618
416853
417087
417325
417566
417799
418027
418264
418509
418747
418979
419219
419461
419708
419958
420198
420438
420679
420929
421171
421405
421644
421883
422127
422374
422611
422847
423091
423340
423584
423820
424059
424298
424547
424796
425033
425269
425515
425764
426004
426238
426475
426713
426956
427204
427440
427673
427919
428165
428403
428635
428872
429108
429347
429592
429830
430064
430305
430554
430792
431025
431262
431499
431744
431992
432230
432465
432709
432959
433202
433435
433670
433906
434149
434394
434631
434867
435114
435367
435615
435857
436104
436346
436595
436845
437086
437325
437574
437822
438065
438308
438552
438793
439039
439284
439523
439759
440004
440250
440492
440727
440967
441204
441446
441690
441927
442159
442402
442647
442886
443119
443351
443585
443823
444061
444294
444524
444762
445006
445242
445473
445708
445944
446185
446427
446659
446892
447126
447368
447600
447832
448062
448295
448532
448773
449010
449245
449478
449724
449961
450198
450432
450669
450903
451143
451381
451618
451849
452091
452332
452569
452805
453048
453284
453526
453769
454006
454239
454480
454725
454962
455193
455428
455663
455904
456149
456384
456616
456856
457104
457348
457584
457825
458065
458311
458560
458799
459038
459284
459531
459771
460005
460241
460474
460715
460959
461194
461428
461674
461921
462163
462400
462641
462881
463126
463375
463617
463853
464100
464349
464593
464833
465319
465566
465809
466047
466281
466524
466765
467004
467236
467474
467713
467955
468194
468434
468670
468917
469162
469403
469639
469881
470121
470366
470608
470847
471085
471332
471575
471819
472058
472301
472538
472783
473026
473266
473499
473744
473986
474225
474458
474699
474935
475177
475419
475656
475891
476138
476383
476624
476857
477098
477336
477579
477822
478061
478293
478537
478782
479022
479258
479498
479738
479985
480232
480479
480720
480971
481219
481468
481710
481955
482198
482448
482694
482937
483177
483430
483675
483918
484156
484402
484644
484893
485134
485376
485612
485862
486100
486337
486573
486814
487051
487296
487534
487774
488010
488258
488495
488730
488966
489210
489447
489690
489932
490175
490415
490671
490917
491158
491393
491638
491881
492127
492363
492602
492842
493096
493340
493582
493823
494068
494315
494566
494807
495048
495293
495545
495786
496024
496266
496508
496751
497001
497240
497475
497716
497965
498201
498431
498663
498897
499133
499374
499603
499831
500057
500296
500525
500751
500973
501205
501430
501661
501889
502118
502340
502573
502806
503035
503258
503485
503713
503946
504183
504410
504640
504872
505112
505342
505571
505797
506030
506260
506494
506722
506948
507169
507400
507631
507859
508078
508299
508520
508745
508977
509198
509418
509639
509874
510099
510325
510545
510771
510993
511220
511451
511670
511888
512111
512344
512561
512781
512997
513222
513441
513669
513898
514122
514345
514573
514810
515038
515261
515487
515716
515948
516182
516411
516642
516867
517103
517337
517572
517797
518033
518263
518502
518737
518970
519196
519433
519670
519904
520129
520364
520596
520835
521078
521313
521548
521792
522042
522287
522524
522769
523011
523262
523515
523764
524003
524251
524503
524751
524987
525231
525472
525719
525963
526206
526444
526695
526942
527187
527424
527670
527912
528162
528404
528646
528886
529142
529385
529627
529866
530109
530348
530594
530833
531075
531313
531562
531801
532039
532278
532521
532761
533006
533245
533481
533716
533962
534195
534427
534655
534894
535129
535367
535603
535840
536074
536322
536563
536803
537040
537285
537527
537775
538016
538258
538499
538750
538993
539238
539481
539728
539979
540233
540477
540719
540969
541226
541472
541711
541953
542193
542439
542687
542924
543157
543399
543648
543887
544119
544356
544593
544836
545082
545319
545554
545795
546042
546279
546508
546741
546977
547214
547453
547688
547924
548161
548407
548646
548883
549120
549362
549607
549853
550093
550332
550571
550820
551060
551298
551533
551773
552014
552258
552497
552736
552978
553230
553472
553713
553955
554199
554445
554690
554929
555168
555409
555658
555897
556130
556368
556607
556849
557093
557331
557566
557805
558055
558296
558532
558766
559004
559244
559485
559719
559951
560186
560432
560668
560902
561135
561375
561616
561855
562089
562324
562560
562807
563043
563278
563513
563751
563989
564231
564467
564701
564932
565175
565411
565645
565878
566114
566346
566587
566826
567063
567294
567538
567777
568014
568244
568483
568715
568953
569189
569429
569661
569905
570147
570389
570623
570865
571105
571351
571594
571836
572070
572316
572560
572803
573037
573276
573510
573756
573996
574233
574467
574712
574955
575198
575433
575674
575908
576154
576398
576635
576868
577117
577362
577604
577839
578079
578316
578561
578805
579046
579280
579529
579778
580022
580257
580500
580738
580983
581227
581470
581704
581948
582189
582430
582665
582902
583137
583381
583624
583864
584096
584342
584588
584829
585061
585303
585540
585786
586030
586269
586501
586746
586989
587229
587462
587702
587938
588184
588431
588673
588909
589156
589403
589647
589886
590131
590366
590611
590857
591099
591333
591581
591828
592071
592305
592548
592789
593034
593277
593517
593752
594000
594244
594483
594715
594952
595186
595427
595662
595897
596131
596375
596614
596855
597090
597329
597564
597809
598052
598290
598523
598770
599008
599245
599478
599717
599953
600197
600442
600684
600920
601172
601420
601665
601906
602154
602399
602646
602892
603135
603375
603626
603869
604108
604349
604594
604840
605089
605329
605570
605815
606066
606311
606546
606786
607025
607273
607519
607754
607990
608231
608477
608719
608954
609190
609427
609672
609919
610156
610390
610631
610878
611115
611346
611582
611818
612056
612295
612528
612760
612994
613240
613475
613709
613942
614183
614419
614658
614896
615133
615364
615845
616083
616312
616544
616774
617011
617249
617485
617712
617951
618191
618429
618656
618890
619121
619360
619599
619832
620062
620303
620546
620782
620988
621248
621486
621733
621980
622218
622452
622696
622945
623187
623420
623662
623899
624145
624394
624636
624871
625118
625371
625619
625858
626106
626348
626599
626849
627094
627334
627588
627837
628081
628319
628562
628802
629047
629286
629522
629758
630004
630242
630479
630711
630947
631179
631417
631652
631887
632115
632352
632589
632824
633051
633283
633512
633751
633992
634224
634453
634694
634939
635180
635410
635650
635889
636137
636385
636628
636863
637111
637360
637604
637841
638085
638325
638574
638819
639065
639306
639557
639803
640052
640294
640542
640786
641037
641282
641524
641768
642021
642266
642509
642746
642988
643233
643481
643720
643957
644198
644450
644691
644927
645168
645411
645653
645900
646142
646381
646622
646872
647112
647348
647587
647827
648071
648316
648557
648798
649040
649293
649537
649773
